0       !Mar 26 2008 version Ca-A, moment balanced, Ellsworth M(A). Use hazFXnga7c
  24.60  50.00 0.050   !
 -125.00 -100.00 0.050   !remove antelope and carson range, KH feb 9 2007
760. 2.0        ! vs30 and dbasin
1. 200.
5        5 periods try some long
0. 1. 0. PGA
0.375 0.210 0.245
0.230 0.225 0.23
0.400 0.360 0.31
../output/NGA/aFault_MoBal.Ell.pga
19
.005 .007 .0098 .0137 .0192 .0269 .0376 .0527 .0738 .103 .145 .203 .284 .397 .556 .778 1.09 1.52 2.13 
3
13 0.3333  1000. 0.3333 0 Boore and Atkinsn April 2007
14 0.3333  1000. 0.3333 0 CB
15 0.3333  1000. 0.3333 0 CY
1.0 1. 0. 1.0-s sa
0.375 0.210 0.245
0.230 0.225 0.23
0.400 0.360 0.31
../output/NGA/aFault_MoBal.Ell.1hz
20
.0025 .00375 .00563 .00844 .0127 .0190 .0285 .0427 .0641 .0961 .144 .216 .324 .487 .730 1.09 1.64 2.46 3.69 5.54
 
3
13 0.3333  1000. 0.3333 0 Boore and Atkinsn April 2007
14 0.3333  1000. 0.3333 0 CB
15 0.3333  1000. 0.3333 0 CY
0.2 1. 0.  5hz PSA
0.375 0.210 0.245
0.230 0.225 0.23
0.400 0.360 0.31
../output/NGA/aFault_MoBal.Ell.5hz
19                        
.005 .0075 0.0113 .0169 .0253 .0380 .0570 .0854 .128 .192 .288 .432 .649 .973 1.46 2.19 3.28 4.92
 7.38 
3
13 0.3333  1000. 0.3333 0 Boore and Atkinsn April 2007
14 0.3333  1000. 0.3333 0 CB
15 0.3333  1000. 0.3333 0 CY
0.5 1. 0.  PSA
0.375 0.210 0.245
0.230 0.225 0.23
0.400 0.360 0.31
../output/NGA/aFault_MoBal.Ell.2hz
20
.0025 .005 .0075 0.0113 .0169 .0253 .0380 .0570 .0854 .128 .192 .288 .432 .649 .973 1.46 2.19 3.28 4.92 7.38 
 3
13 0.3333  1000. 0.3333 0 Boore and Atkinsn April 2007
14 0.3333  1000. 0.3333 0 CB
15 0.3333  1000. 0.3333 0 CY
2.0 1. 0.  PSA
0.375 0.210 0.245
0.230 0.225 0.23
0.400 0.360 0.31
../output/NGA/aFault_MoBal.Ell.2sc
20
.0025 .006 .0098 .0137 .0192 .0269 .0376 .0527 .0738 .103 .145 .203 .284 .397 .556 .778 1.09 1.52 2.13 3.3
3
13 0.3333  1000. 0.3333 0 Boore and Atkinsn April 2007
14 0.3334  1000. 0.3333 0 CB
15 0.3333  1000. 0.3333 0 CY
1. 1.
1
0
1
.12 5
  1  1  3  Elsinore;W          combined w/merge3.f           
 7.029 0.99270E-03 0.5000
 7.029 0.99270E-03 0.2000
 7.029 0.99270E-03 0.3000
   75.0    15.00   0.0       46.0
   7
   33.82890 -117.59000
   33.85110 -117.63600
   33.87330 -117.71700
   33.90740 -117.79200
   33.92970 -117.85200
   33.97120 -117.99200
   33.99500 -118.04800
  1  1  3  Elsinore;GI                                       
 6.889 0.12862E-02 0.5000
 6.889 0.12862E-02 0.2000
 6.889 0.12862E-02 0.3000
   90.0    13.00   0.0       37.0
   8
   33.82890 -117.59000
   33.81290 -117.54800
   33.74509 -117.46332
   33.73183 -117.44568
   33.71851 -117.42415
   33.70453 -117.40265
   33.68522 -117.37270
   33.62646 -117.27443
  1  1  3  Elsinore;T                                        
 7.066 0.13519E-03 0.5000
 7.066 0.13519E-03 0.2000
 7.066 0.13519E-03 0.3000
   90.0    14.00   0.0       52.0
  10
   33.66770 -117.38900
   33.63098 -117.31566
   33.61160 -117.28099
   33.55897 -117.20448
   33.52894 -117.17214
   33.49754 -117.14172
   33.42297 -117.05333
   33.39140 -117.03091
   33.37030 -117.01517
   33.34092 -117.00819
  1  1  3  Elsinore;J                                        
 7.354 0.41132E-04 0.5000
 7.354 0.41132E-04 0.2000
 7.354 0.41132E-04 0.3000
   84.0    19.00   0.0       75.0
  11
   32.94965 -116.35568
   32.98262 -116.40701
   33.01088 -116.46024
   33.04934 -116.51917
   33.12250 -116.62800
   33.17807 -116.69025
   33.20868 -116.72922
   33.24650 -116.79100
   33.27900 -116.84400
   33.33200 -116.95200
   33.34090 -117.00820
  1  1  3  Elsinore;CM                                       
 6.914 0.11175E-02 0.5000
 6.914 0.11175E-02 0.2000
 6.914 0.11175E-02 0.3000
   82.0    13.00   0.0       39.0
   6
   32.77900 -116.00600
   32.81440 -116.09900
   32.83770 -116.17800
   32.88921 -116.23022
   32.93081 -116.26443
   32.97477 -116.33667
  1  1  3  Elsinore;W+GI                                     
 7.266 0.27038E-04 0.5000
 7.266 0.27038E-04 0.2000
 7.266 0.27038E-04 0.3000
   81.3    14.00   0.0       83.0
  14
   33.62646 -117.27443
   33.68522 -117.37270
   33.70453 -117.40265
   33.71851 -117.42415
   33.73183 -117.44568
   33.74509 -117.46332
   33.81290 -117.54800
   33.82890 -117.59000
   33.85110 -117.63600
   33.87330 -117.71700
   33.90740 -117.79200
   33.92970 -117.85200
   33.97120 -117.99200
   33.99500 -118.04800
  1  1  3  Elsinore;GI+T                                     
 7.288 0.13519E-03 0.5000
 7.288 0.13519E-03 0.2000
 7.288 0.13519E-03 0.3000
   90.0    14.00   0.0       78.0
  15
   33.82890 -117.59000
   33.81290 -117.54800
   33.74509 -117.46332
   33.73183 -117.44568
   33.71851 -117.42415
   33.70453 -117.40265
   33.68522 -117.37270
   33.61160 -117.28099
   33.55897 -117.20448
   33.52894 -117.17214
   33.49754 -117.14172
   33.42297 -117.05333
   33.39140 -117.03091
   33.37030 -117.01517
   33.34092 -117.00819
  1  1  3  Elsinore;T+J                                      
 7.535 0.13519E-03 0.5000
 7.535 0.13519E-03 0.2000
 7.535 0.13519E-03 0.3000
   86.0    17.00   0.0      127.0
  20
   32.94965 -116.35568
   32.98262 -116.40701
   33.01088 -116.46024
   33.04934 -116.51917
   33.12250 -116.62800
   33.17807 -116.69025
   33.20868 -116.72922
   33.24650 -116.79100
   33.27900 -116.84400
   33.33200 -116.95200
   33.34092 -117.00819
   33.37030 -117.01517
   33.39140 -117.03091
   33.42297 -117.05333
   33.49754 -117.14172
   33.52894 -117.17214
   33.55897 -117.20448
   33.61160 -117.28099
   33.63098 -117.31566
   33.66770 -117.38900
  1  1  3  Elsinore;J+CM                                     
 7.489 0.18870E-03 0.5000
 7.489 0.18870E-03 0.2000
 7.489 0.18870E-03 0.3000
   83.5    17.00   0.0      118.0
  17
   32.77900 -116.00600
   32.81440 -116.09900
   32.83770 -116.17800
   32.88921 -116.23022
   32.93081 -116.26443
   32.97477 -116.33667
   32.94965 -116.35568
   32.98262 -116.40701
   33.01088 -116.46024
   33.04934 -116.51917
   33.12250 -116.62800
   33.17807 -116.69025
   33.20868 -116.72922
   33.24650 -116.79100
   33.27900 -116.84400
   33.33200 -116.95200
   33.34090 -117.00820
  1  1  3  Elsinore;W+GI+T                                   
 7.478 0.27038E-04 0.5000
 7.478 0.27038E-04 0.2000
 7.478 0.27038E-04 0.3000
   83.6    14.00   0.0      124.0
  21
   33.34092 -117.00819
   33.37030 -117.01517
   33.39140 -117.03091
   33.42297 -117.05333
   33.49754 -117.14172
   33.52894 -117.17214
   33.55897 -117.20448
   33.61160 -117.28099
   33.68522 -117.37270
   33.70453 -117.40265
   33.71851 -117.42415
   33.73183 -117.44568
   33.74509 -117.46332
   33.81290 -117.54800
   33.82890 -117.59000
   33.85110 -117.63600
   33.87330 -117.71700
   33.90740 -117.79200
   33.92970 -117.85200
   33.97120 -117.99200
   33.99500 -118.04800
  1  1  3  Elsinore;GI+T+J                                   
 7.623 0.13519E-03 0.5000
 7.623 0.13519E-03 0.2000
 7.623 0.13519E-03 0.3000
   86.3    17.00   0.0      153.0
  25
   32.94965 -116.35568
   32.98262 -116.40701
   33.01088 -116.46024
   33.04934 -116.51917
   33.12250 -116.62800
   33.17807 -116.69025
   33.20868 -116.72922
   33.24650 -116.79100
   33.27900 -116.84400
   33.33200 -116.95200
   33.34092 -117.00819
   33.37030 -117.01517
   33.39140 -117.03091
   33.42297 -117.05333
   33.49754 -117.14172
   33.52894 -117.17214
   33.55897 -117.20448
   33.61160 -117.28099
   33.68522 -117.37270
   33.70453 -117.40265
   33.71851 -117.42415
   33.73183 -117.44568
   33.74509 -117.46332
   33.81290 -117.54800
   33.82890 -117.59000
  1  1  3  Elsinore;T+J+CM                                   
 7.628 0.30288E-03 0.5000
 7.628 0.30288E-03 0.2000
 7.628 0.30288E-03 0.3000
   85.3    16.00   0.0      169.0
  26
   32.77900 -116.00600
   32.81440 -116.09900
   32.83770 -116.17800
   32.88921 -116.23022
   32.93081 -116.26443
   32.97477 -116.33667
   32.94965 -116.35568
   32.98262 -116.40701
   33.01088 -116.46024
   33.04934 -116.51917
   33.12250 -116.62800
   33.17807 -116.69025
   33.20868 -116.72922
   33.24650 -116.79100
   33.27900 -116.84400
   33.33200 -116.95200
   33.34092 -117.00819
   33.37030 -117.01517
   33.39140 -117.03091
   33.42297 -117.05333
   33.49754 -117.14172
   33.52894 -117.17214
   33.55897 -117.20448
   33.61160 -117.28099
   33.63098 -117.31566
   33.66770 -117.38900
  1  1  3  Elsinore;W+GI+T+J                                 
 7.722 0.27038E-04 0.5000
 7.722 0.27038E-04 0.2000
 7.722 0.27038E-04 0.3000
   83.8    16.00   0.0      199.0
  31
   32.94965 -116.35568
   32.98262 -116.40701
   33.01088 -116.46024
   33.04934 -116.51917
   33.12250 -116.62800
   33.17807 -116.69025
   33.20868 -116.72922
   33.24650 -116.79100
   33.27900 -116.84400
   33.33200 -116.95200
   33.34092 -117.00819
   33.37030 -117.01517
   33.39140 -117.03091
   33.42297 -117.05333
   33.49754 -117.14172
   33.52894 -117.17214
   33.55897 -117.20448
   33.61160 -117.28099
   33.68522 -117.37270
   33.70453 -117.40265
   33.71851 -117.42415
   33.73183 -117.44568
   33.74509 -117.46332
   33.81290 -117.54800
   33.82890 -117.59000
   33.85110 -117.63600
   33.87330 -117.71700
   33.90740 -117.79200
   33.92970 -117.85200
   33.97120 -117.99200
   33.99500 -118.04800
  1  1  3  Elsinore;GI+T+J+CM                                
 7.701 0.19837E-03 0.5000
 7.701 0.19837E-03 0.2000
 7.701 0.19837E-03 0.3000
   85.5    16.00   0.0      195.0
  31
   32.77900 -116.00600
   32.81440 -116.09900
   32.83770 -116.17800
   32.88921 -116.23022
   32.93081 -116.26443
   32.97477 -116.33667
   32.94965 -116.35568
   32.98262 -116.40701
   33.01088 -116.46024
   33.04934 -116.51917
   33.12250 -116.62800
   33.17807 -116.69025
   33.20868 -116.72922
   33.24650 -116.79100
   33.27900 -116.84400
   33.33200 -116.95200
   33.34092 -117.00819
   33.37030 -117.01517
   33.39140 -117.03091
   33.42297 -117.05333
   33.49754 -117.14172
   33.52894 -117.17214
   33.55897 -117.20448
   33.61160 -117.28099
   33.68522 -117.37270
   33.70453 -117.40265
   33.71851 -117.42415
   33.73183 -117.44568
   33.74509 -117.46332
   33.81290 -117.54800
   33.82890 -117.59000
  1  1  3  Elsinore;W+GI+T+J+CM                              
 7.785 0.27038E-04 0.5000
 7.785 0.27038E-04 0.2000
 7.785 0.27038E-04 0.3000
   83.5    16.00   0.0      241.0
  37
   32.77900 -116.00600
   32.81440 -116.09900
   32.83770 -116.17800
   32.88921 -116.23022
   32.93081 -116.26443
   32.97477 -116.33667
   32.94965 -116.35568
   32.98262 -116.40701
   33.01088 -116.46024
   33.04934 -116.51917
   33.12250 -116.62800
   33.17807 -116.69025
   33.20868 -116.72922
   33.24650 -116.79100
   33.27900 -116.84400
   33.33200 -116.95200
   33.34092 -117.00819
   33.37030 -117.01517
   33.39140 -117.03091
   33.42297 -117.05333
   33.49754 -117.14172
   33.52894 -117.17214
   33.55897 -117.20448
   33.61160 -117.28099
   33.68522 -117.37270
   33.70453 -117.40265
   33.71851 -117.42415
   33.73183 -117.44568
   33.74509 -117.46332
   33.81290 -117.54800
   33.82890 -117.59000
   33.85110 -117.63600
   33.87330 -117.71700
   33.90740 -117.79200
   33.92970 -117.85200
   33.97120 -117.99200
   33.99500 -118.04800
  1  1  3  Garlock;GE                                        
 6.915 0.38826E-03 0.5000
 6.915 0.38826E-03 0.2000
 6.915 0.38826E-03 0.3000
   90.0    12.00   0.0       45.0
   5
   35.59833 -116.87894
   35.59671 -116.81796
   35.59358 -116.59081
   35.58640 -116.46697
   35.59040 -116.37972
  1  1  3  Garlock;GC                                        
 7.306 0.99988E-04 0.5000
 7.306 0.99988E-04 0.2000
 7.306 0.99988E-04 0.3000
   90.0    12.00   0.0      111.0
   6
   35.28346 -118.02395
   35.42322 -117.74931
   35.49720 -117.48687
   35.56760 -117.15792
   35.60182 -117.01067
   35.59833 -116.87894
  1  1  3  Garlock;GW                                        
 7.311 0.23585E-03 0.5000
 7.311 0.23585E-03 0.2000
 7.311 0.23585E-03 0.3000
   90.0    13.00   0.7       98.0
  11
   34.82362 -118.91833
   34.82844 -118.87123
   34.84924 -118.82281
   34.88225 -118.77081
   34.93137 -118.66699
   34.99577 -118.47466
   35.04770 -118.37540
   35.07881 -118.33260
   35.18647 -118.11913
   35.22325 -118.06134
   35.27129 -118.01031
  1  1  3  Garlock;GE+GC                                     
 7.454 0.96687E-04 0.5000
 7.454 0.96687E-04 0.2000
 7.454 0.96687E-04 0.3000
   90.0    12.00   0.0      156.0
  10
   35.59040 -116.37972
   35.58640 -116.46697
   35.59358 -116.59081
   35.59671 -116.81796
   35.59833 -116.87894
   35.60182 -117.01067
   35.56760 -117.15792
   35.49720 -117.48687
   35.42322 -117.74931
   35.28346 -118.02395
  1  1  3  Garlock;GC+GW                                     
 7.609 0.64641E-03 0.5000
 7.609 0.64641E-03 0.2000
 7.609 0.64641E-03 0.3000
   90.0    12.00   0.4      210.0
  17
   34.82362 -118.91833
   34.82844 -118.87123
   34.84924 -118.82281
   34.88225 -118.77081
   34.93137 -118.66699
   34.99577 -118.47466
   35.04770 -118.37540
   35.07881 -118.33260
   35.18647 -118.11913
   35.22325 -118.06134
   35.27129 -118.01031
   35.28346 -118.02395
   35.42322 -117.74931
   35.49720 -117.48687
   35.56760 -117.15792
   35.60182 -117.01067
   35.59833 -116.87894
  1  1  3  Garlock;GE+GC+GW                                  
 7.689 0.63233E-03 0.5000
 7.689 0.63233E-03 0.2000
 7.689 0.63233E-03 0.3000
   90.0    12.00   0.3      256.0
  21
   35.59040 -116.37972
   35.58640 -116.46697
   35.59358 -116.59081
   35.59671 -116.81796
   35.59833 -116.87894
   35.60182 -117.01067
   35.56760 -117.15792
   35.49720 -117.48687
   35.42322 -117.74931
   35.28346 -118.02395
   35.27129 -118.01031
   35.22325 -118.06134
   35.18647 -118.11913
   35.07881 -118.33260
   35.04770 -118.37540
   34.99577 -118.47466
   34.93137 -118.66699
   34.88225 -118.77081
   34.84924 -118.82281
   34.82844 -118.87123
   34.82362 -118.91833
  1  1  3  San Jacinto;SBV                                   
 7.061 0.48067E-03 0.5000
 7.061 0.17168E-02 0.2000
 7.061 0.48067E-03 0.3000
   90.0    16.00   0.0       45.0
   6
   34.29360 -117.56500
   34.18200 -117.40300
   34.19170 -117.38900
   34.15880 -117.36400
   34.10130 -117.32500
   34.01700 -117.23700
  1  1  3  San Jacinto;SJV                                   
 7.037 0.48067E-03 0.5000
 7.037 0.13103E-02 0.2000
 7.037 0.48067E-03 0.3000
   90.0    16.00   0.0       43.0
   6
   34.01700 -117.23700
   34.00670 -117.22200
   33.90453 -117.08958
   33.84928 -117.01205
   33.80536 -116.93905
   33.75567 -116.90302
  1  1  3  San Jacinto;A                                     
 7.277 0.96135E-04 0.5000
 7.277 0.96135E-04 0.2000
 7.277 0.96135E-04 0.3000
   90.0    17.00   0.0       71.0
   7
   33.89068 -117.10829
   33.77780 -116.97900
   33.76173 -116.96198
   33.73643 -116.91430
   33.69667 -116.84472
   33.51120 -116.54900
   33.48955 -116.51330
  1  1  3  San Jacinto;C                                     
 7.095 0.96135E-04 0.5000
 7.095 0.96135E-04 0.2000
 7.095 0.96135E-04 0.3000
   90.0    17.00   0.0       47.0
   7
   33.48955 -116.51330
   33.41660 -116.39300
   33.39600 -116.33900
   33.38390 -116.29700
   33.31500 -116.21000
   33.28540 -116.14700
   33.25580 -116.09900
  1  1  3  San Jacinto;CC                                    
 7.033 0.48067E-03 0.5000
 7.033 0.48067E-03 0.2000
 7.033 0.48067E-03 0.3000
   90.0    16.00   0.0       43.0
   4
   33.46880 -116.54300
   33.42040 -116.47000
   33.26360 -116.28300
   33.20660 -116.20500
  1  1  3  San Jacinto;B                                     
 6.806 0.48067E-03 0.5000
 6.806 0.48067E-03 0.2000
 6.806 0.48067E-03 0.3000
   90.0    12.00   0.7       34.0
   6
   33.20660 -116.20500
   33.18220 -116.16400
   33.14340 -116.12900
   33.09760 -116.05800
   33.02970 -116.01100
   33.00100 -115.94300
  1  1  3  San Jacinto;SM                                    
 6.713 0.16207E-02 0.5000
 6.713 0.16207E-02 0.2000
 6.713 0.16207E-02 0.3000
   90.0    12.00   0.0       26.0
   3
   33.00100 -115.94300
   32.93785 -115.80666
   32.88420 -115.69800
  1  1  3  San Jacinto;SBV+SJV                               
 7.350 0.48067E-03 0.5000
 7.350 0.52051E-03 0.2000
 7.350 0.48067E-03 0.3000
   90.0    16.00   0.0       88.0
  11
   34.29360 -117.56500
   34.18200 -117.40300
   34.19170 -117.38900
   34.15880 -117.36400
   34.10130 -117.32500
   34.01700 -117.23700
   34.00670 -117.22200
   33.90453 -117.08958
   33.84928 -117.01205
   33.80536 -116.93905
   33.75567 -116.90302
  1  1  3  San Jacinto;SJV+A                                 
 7.474 0.48067E-03 0.5000
 7.474 0.48067E-03 0.2000
 7.474 0.48067E-03 0.3000
   90.0    17.00   0.0       89.0
   7
   34.01700 -117.23700
   34.00670 -117.22200
   33.90453 -117.08958
   33.73643 -116.91430
   33.69667 -116.84472
   33.51120 -116.54900
   33.48955 -116.51330
  1  1  3  San Jacinto;A+C                                   
 7.497 0.13071E-02 0.5000
 7.497 0.22825E-02 0.2000
 7.497 0.86131E-03 0.3000
   90.0    17.00   0.0      118.0
  13
   33.89068 -117.10829
   33.77780 -116.97900
   33.76173 -116.96198
   33.73643 -116.91430
   33.69667 -116.84472
   33.51120 -116.54900
   33.48955 -116.51330
   33.41660 -116.39300
   33.39600 -116.33900
   33.38390 -116.29700
   33.31500 -116.21000
   33.28540 -116.14700
   33.25580 -116.09900
  1  1  3  San Jacinto;A+CC                                  
 7.473 0.96135E-04 0.5000
 7.473 0.96135E-04 0.2000
 7.473 0.96135E-04 0.3000
   90.0    16.00   0.0      118.0
  11
   33.20660 -116.20500
   33.26360 -116.28300
   33.42040 -116.47000
   33.46880 -116.54300
   33.48955 -116.51330
   33.51120 -116.54900
   33.69667 -116.84472
   33.73643 -116.91430
   33.76173 -116.96198
   33.77780 -116.97900
   33.89068 -117.10829
  1  1  3  San Jacinto;CC+B                                  
 7.235 0.48067E-03 0.5000
 7.235 0.48067E-03 0.2000
 7.235 0.48067E-03 0.3000
   90.0    14.00   0.2       77.0
   9
   33.46880 -116.54300
   33.42040 -116.47000
   33.26360 -116.28300
   33.20660 -116.20500
   33.18220 -116.16400
   33.14340 -116.12900
   33.09760 -116.05800
   33.02970 -116.01100
   33.00100 -115.94300
  1  1  3  San Jacinto;B+SM                                  
 7.063 0.48067E-03 0.5000
 7.063 0.48067E-03 0.2000
 7.063 0.48067E-03 0.3000
   90.0    12.00   0.4       61.0
   8
   33.20660 -116.20500
   33.18220 -116.16400
   33.14340 -116.12900
   33.09760 -116.05800
   33.02970 -116.01100
   33.00100 -115.94300
   32.93785 -115.80666
   32.88420 -115.69800
  1  1  3  San Jacinto;SBV+SJV+A                             
 7.616 0.48067E-03 0.5000
 7.616 0.48067E-03 0.2000
 7.616 0.48067E-03 0.3000
   90.0    16.00   0.0      134.0
  12
   34.29360 -117.56500
   34.18200 -117.40300
   34.19170 -117.38900
   34.15880 -117.36400
   34.10130 -117.32500
   34.01700 -117.23700
   34.00670 -117.22200
   33.90453 -117.08958
   33.73643 -116.91430
   33.69667 -116.84472
   33.51120 -116.54900
   33.48955 -116.51330
  1  1  3  San Jacinto;SJV+A+C                               
 7.626 0.48067E-03 0.5000
 7.626 0.48067E-03 0.2000
 7.626 0.48067E-03 0.3000
   90.0    17.00   0.0      136.0
  13
   34.01700 -117.23700
   34.00670 -117.22200
   33.90453 -117.08958
   33.73643 -116.91430
   33.69667 -116.84472
   33.51120 -116.54900
   33.48955 -116.51330
   33.41660 -116.39300
   33.39600 -116.33900
   33.38390 -116.29700
   33.31500 -116.21000
   33.28540 -116.14700
   33.25580 -116.09900
  1  1  3  San Jacinto;SJV+A+CC                              
 7.609 0.96135E-04 0.5000
 7.609 0.96135E-04 0.2000
 7.609 0.96135E-04 0.3000
   90.0    16.00   0.0      136.0
  11
   33.20660 -116.20500
   33.26360 -116.28300
   33.42040 -116.47000
   33.46880 -116.54300
   33.48955 -116.51330
   33.51120 -116.54900
   33.69667 -116.84472
   33.73643 -116.91430
   33.90453 -117.08958
   34.00670 -117.22200
   34.01700 -117.23700
  1  1  3  San Jacinto;A+CC+B                                
 7.558 0.96135E-04 0.5000
 7.558 0.96135E-04 0.2000
 7.558 0.96135E-04 0.3000
   90.0    15.00   0.1      152.0
  16
   33.00100 -115.94300
   33.02970 -116.01100
   33.09760 -116.05800
   33.14340 -116.12900
   33.18220 -116.16400
   33.20660 -116.20500
   33.26360 -116.28300
   33.42040 -116.47000
   33.46880 -116.54300
   33.48955 -116.51330
   33.51120 -116.54900
   33.69667 -116.84472
   33.73643 -116.91430
   33.76173 -116.96198
   33.77780 -116.97900
   33.89068 -117.10829
  1  1  3  San Jacinto;CC+B+SM                               
 7.350 0.48067E-03 0.5000
 7.350 0.48067E-03 0.2000
 7.350 0.48067E-03 0.3000
   90.0    14.00   0.2      103.0
  11
   33.46880 -116.54300
   33.42040 -116.47000
   33.26360 -116.28300
   33.20660 -116.20500
   33.18220 -116.16400
   33.14340 -116.12900
   33.09760 -116.05800
   33.02970 -116.01100
   33.00100 -115.94300
   32.93785 -115.80666
   32.88420 -115.69800
  1  1  3  San Jacinto;SBV+SJV+A+C                           
 7.731 0.48067E-03 0.5000
 7.731 0.48067E-03 0.2000
 7.731 0.48067E-03 0.3000
   90.0    17.00   0.0      181.0
  18
   34.29360 -117.56500
   34.18200 -117.40300
   34.19170 -117.38900
   34.15880 -117.36400
   34.10130 -117.32500
   34.01700 -117.23700
   34.00670 -117.22200
   33.90453 -117.08958
   33.73643 -116.91430
   33.69667 -116.84472
   33.51120 -116.54900
   33.48955 -116.51330
   33.41660 -116.39300
   33.39600 -116.33900
   33.38390 -116.29700
   33.31500 -116.21000
   33.28540 -116.14700
   33.25580 -116.09900
  1  1  3  San Jacinto;SBV+SJV+A+CC                          
 7.717 0.96135E-04 0.5000
 7.717 0.96135E-04 0.2000
 7.717 0.96135E-04 0.3000
   90.0    16.00   0.0      181.0
  16
   33.20660 -116.20500
   33.26360 -116.28300
   33.42040 -116.47000
   33.46880 -116.54300
   33.48955 -116.51330
   33.51120 -116.54900
   33.69667 -116.84472
   33.73643 -116.91430
   33.90453 -117.08958
   34.00670 -117.22200
   34.01700 -117.23700
   34.10130 -117.32500
   34.15880 -117.36400
   34.19170 -117.38900
   34.18200 -117.40300
   34.29360 -117.56500
  1  1  3  San Jacinto;SJV+A+CC+B                            
 7.672 0.96135E-04 0.5000
 7.672 0.96135E-04 0.2000
 7.672 0.96135E-04 0.3000
   90.0    15.00   0.1      170.0
  16
   33.00100 -115.94300
   33.02970 -116.01100
   33.09760 -116.05800
   33.14340 -116.12900
   33.18220 -116.16400
   33.20660 -116.20500
   33.26360 -116.28300
   33.42040 -116.47000
   33.46880 -116.54300
   33.48955 -116.51330
   33.51120 -116.54900
   33.69667 -116.84472
   33.73643 -116.91430
   33.90453 -117.08958
   34.00670 -117.22200
   34.01700 -117.23700
  1  1  3  San Jacinto;A+CC+B+SM                             
 7.616 0.96135E-04 0.5000
 7.616 0.96135E-04 0.2000
 7.616 0.96135E-04 0.3000
   90.0    15.00   0.1      178.0
  18
   32.88420 -115.69800
   32.93785 -115.80666
   33.00100 -115.94300
   33.02970 -116.01100
   33.09760 -116.05800
   33.14340 -116.12900
   33.18220 -116.16400
   33.20660 -116.20500
   33.26360 -116.28300
   33.42040 -116.47000
   33.46880 -116.54300
   33.48955 -116.51330
   33.51120 -116.54900
   33.69667 -116.84472
   33.73643 -116.91430
   33.76173 -116.96198
   33.77780 -116.97900
   33.89068 -117.10829
  1  1  3  San Jacinto;SBV+SJV+A+CC+B                        
 7.767 0.96135E-04 0.5000
 7.767 0.96135E-04 0.2000
 7.767 0.96135E-04 0.3000
   90.0    15.00   0.1      215.0
  21
   33.00100 -115.94300
   33.02970 -116.01100
   33.09760 -116.05800
   33.14340 -116.12900
   33.18220 -116.16400
   33.20660 -116.20500
   33.26360 -116.28300
   33.42040 -116.47000
   33.46880 -116.54300
   33.48955 -116.51330
   33.51120 -116.54900
   33.69667 -116.84472
   33.73643 -116.91430
   33.90453 -117.08958
   34.00670 -117.22200
   34.01700 -117.23700
   34.10130 -117.32500
   34.15880 -117.36400
   34.19170 -117.38900
   34.18200 -117.40300
   34.29360 -117.56500
  1  1  3  San Jacinto;SJV+A+CC+B+SM                         
 7.717 0.96135E-04 0.5000
 7.717 0.96135E-04 0.2000
 7.717 0.96135E-04 0.3000
   90.0    15.00   0.1      196.0
  18
   32.88420 -115.69800
   32.93785 -115.80666
   33.00100 -115.94300
   33.02970 -116.01100
   33.09760 -116.05800
   33.14340 -116.12900
   33.18220 -116.16400
   33.20660 -116.20500
   33.26360 -116.28300
   33.42040 -116.47000
   33.46880 -116.54300
   33.48955 -116.51330
   33.51120 -116.54900
   33.69667 -116.84472
   33.73643 -116.91430
   33.90453 -117.08958
   34.00670 -117.22200
   34.01700 -117.23700
  1  1  3  San Jacinto;SBV+SJV+A+CC+B+SM                     
 7.804 0.96135E-04 0.5000
 7.804 0.96135E-04 0.2000
 7.804 0.96135E-04 0.3000
   90.0    15.00   0.1      241.0
  23
   32.88420 -115.69800
   32.93785 -115.80666
   33.00100 -115.94300
   33.02970 -116.01100
   33.09760 -116.05800
   33.14340 -116.12900
   33.18220 -116.16400
   33.20660 -116.20500
   33.26360 -116.28300
   33.42040 -116.47000
   33.46880 -116.54300
   33.48955 -116.51330
   33.51120 -116.54900
   33.69667 -116.84472
   33.73643 -116.91430
   33.90453 -117.08958
   34.00670 -117.22200
   34.01700 -117.23700
   34.10130 -117.32500
   34.15880 -117.36400
   34.19170 -117.38900
   34.18200 -117.40300
   34.29360 -117.56500
  1  1  3  N. San Andreas;SAO                                
 7.367 0.12698E-02 0.5000
 7.367 0.12698E-02 0.2000
 7.367 0.12698E-02 0.3000
   90.0    11.00   0.1      136.0
   9
   39.17060 -123.84070
   39.25890 -123.87260
   39.39650 -123.92240
   39.67300 -123.99530
   39.91350 -124.00670
   40.02590 -124.04900
   40.05060 -124.06350
   40.09650 -124.13810
   40.24400 -124.40320
  1  1  3  N. San Andreas;SAN                                
 7.511 0.21606E-04 0.5000
 7.511 0.21606E-04 0.2000
 7.511 0.21606E-04 0.3000
   90.0    11.00   0.1      189.0
   7
   37.78560 -122.57410
   37.96170 -122.72245
   38.18100 -122.91700
   38.32900 -123.04190
   38.40800 -123.11440
   39.10140 -123.78940
   39.17060 -123.84070
  1  1  3  N. San Andreas;SAP                                
 7.233 0.12994E-03 0.5000
 7.233 0.12994E-03 0.2000
 7.233 0.12994E-03 0.3000
   90.0    13.00   0.1       85.0
   5
   37.17620 -122.00360
   37.29700 -122.14000
   37.36700 -122.21000
   37.43800 -122.28300
   37.78560 -122.57410
  1  1  3  N. San Andreas;SAS                                
 7.123 0.22472E-02 0.5000
 7.123 0.22472E-02 0.2000
 7.123 0.22472E-02 0.3000
   90.0    14.00   0.8       62.0
   7
   36.80590 -121.48160
   36.87010 -121.56450
   36.92600 -121.65200
   36.98900 -121.73300
   37.05300 -121.81200
   37.10400 -121.90700
   37.17620 -122.00360
  1  1  3  N. San Andreas;SAO+SAN                            
 7.746 0.29771E-02 0.5000
 7.746 0.29771E-02 0.2000
 7.746 0.29771E-02 0.3000
   90.0    11.00   0.1      325.0
  15
   40.24400 -124.40320
   40.09650 -124.13810
   40.05060 -124.06350
   40.02590 -124.04900
   39.91350 -124.00670
   39.67300 -123.99530
   39.39650 -123.92240
   39.25890 -123.87260
   39.17060 -123.84070
   39.10140 -123.78940
   38.40800 -123.11440
   38.32900 -123.04190
   38.18100 -122.91700
   37.96170 -122.72245
   37.78560 -122.57410
  1  1  3  N. San Andreas;SAN+SAP                            
 7.695 0.22567E-05 0.5000
 7.695 0.22567E-05 0.2000
 7.695 0.22567E-05 0.3000
   90.0    11.00   0.1      274.0
  11
   39.17060 -123.84070
   39.10140 -123.78940
   38.40800 -123.11440
   38.32900 -123.04190
   38.18100 -122.91700
   37.96170 -122.72245
   37.78560 -122.57410
   37.43800 -122.28300
   37.36700 -122.21000
   37.29700 -122.14000
   37.17620 -122.00360
  1  1  3  N. San Andreas;SAP+SAS                            
 7.483 0.23820E-02 0.5000
 7.483 0.23820E-02 0.2000
 7.483 0.23820E-02 0.3000
   90.0    13.00   0.4      147.0
  11
   37.78560 -122.57410
   37.43800 -122.28300
   37.36700 -122.21000
   37.29700 -122.14000
   37.17620 -122.00360
   37.10400 -121.90700
   37.05300 -121.81200
   36.98900 -121.73300
   36.92600 -121.65200
   36.87010 -121.56450
   36.80590 -121.48160
  1  1  3  N. San Andreas;SAO+SAN+SAP                        
 7.862 0.77701E-04 0.5000
 7.862 0.77701E-04 0.2000
 7.862 0.77701E-04 0.3000
   90.0    11.00   0.1      410.0
  19
   40.24400 -124.40320
   40.09650 -124.13810
   40.05060 -124.06350
   40.02590 -124.04900
   39.91350 -124.00670
   39.67300 -123.99530
   39.39650 -123.92240
   39.25890 -123.87260
   39.17060 -123.84070
   39.10140 -123.78940
   38.40800 -123.11440
   38.32900 -123.04190
   38.18100 -122.91700
   37.96170 -122.72245
   37.78560 -122.57410
   37.43800 -122.28300
   37.36700 -122.21000
   37.29700 -122.14000
   37.17620 -122.00360
  1  1  3  N. San Andreas;SAN+SAP+SAS                        
 7.798 0.25121E-04 0.5000
 7.798 0.25121E-04 0.2000
 7.798 0.25121E-04 0.3000
   90.0    12.00   0.2      336.0
  17
   39.17060 -123.84070
   39.10140 -123.78940
   38.40800 -123.11440
   38.32900 -123.04190
   38.18100 -122.91700
   37.96170 -122.72245
   37.78560 -122.57410
   37.43800 -122.28300
   37.36700 -122.21000
   37.29700 -122.14000
   37.17620 -122.00360
   37.10400 -121.90700
   37.05300 -121.81200
   36.98900 -121.73300
   36.92600 -121.65200
   36.87010 -121.56450
   36.80590 -121.48160
  1  1  3  N. San Andreas;SAO+SAN+SAP+SAS                    
 7.935 0.10657E-02 0.5000
 7.935 0.10657E-02 0.2000
 7.935 0.10657E-02 0.3000
   90.0    12.00   0.2      472.0
  25
   40.24400 -124.40320
   40.09650 -124.13810
   40.05060 -124.06350
   40.02590 -124.04900
   39.91350 -124.00670
   39.67300 -123.99530
   39.39650 -123.92240
   39.25890 -123.87260
   39.17060 -123.84070
   39.10140 -123.78940
   38.40800 -123.11440
   38.32900 -123.04190
   38.18100 -122.91700
   37.96170 -122.72245
   37.78560 -122.57410
   37.43800 -122.28300
   37.36700 -122.21000
   37.29700 -122.14000
   37.17620 -122.00360
   37.10400 -121.90700
   37.05300 -121.81200
   36.98900 -121.73300
   36.92600 -121.65200
   36.87010 -121.56450
   36.80590 -121.48160
  1  1  3  S. San Andreas;PK                                 
 6.092 0.27036E-01 0.5000
 6.092 0.27045E-01 0.2000
 6.092 0.26945E-01 0.3000
   90.0     2.00   4.0       36.0
   2
   35.75198 -120.30005
   36.00265 -120.56089
  1  1  3  S. San Andreas;CH                                 
 7.075 0.56736E-04 0.5000
 7.075 0.56734E-04 0.2000
 7.075 0.56744E-04 0.3000
   90.0    12.00   0.0       63.0
   4
   35.31417 -119.86595
   35.41391 -119.97030
   35.53331 -120.08675
   35.75198 -120.30005
  1  1  3  S. San Andreas;CC                                 
 7.150 0.17094E-03 0.5000
 7.150 0.17253E-03 0.2000
 7.150 0.16792E-03 0.3000
   90.0    15.00   0.0       59.0
   5
   35.31420 -119.86590
   35.16070 -119.70680
   35.04750 -119.55830
   34.98780 -119.47110
   34.94410 -119.40290
  1  1  3  S. San Andreas;BB                                 
 7.076 0.61915E-03 0.5000
 7.076 0.62515E-03 0.2000
 7.076 0.60647E-03 0.3000
   90.0    15.00   0.0       50.0
   5
   34.94406 -119.40286
   34.91571 -119.36286
   34.86390 -119.21000
   34.82896 -119.03009
   34.80760 -118.89012
  1  1  3  S. San Andreas;NM                                 
 6.945 0.11299E-03 0.5000
 6.945 0.10165E-03 0.2000
 6.945 0.13686E-03 0.3000
   90.0    15.00   0.0       37.0
   4
   34.80760 -118.89012
   34.80722 -118.88764
   34.77325 -118.76731
   34.69849 -118.50895
  1  1  3  S. San Andreas;SM                                 
 7.307 0.69636E-03 0.5000
 7.307 0.82516E-03 0.2000
 7.307 0.40816E-03 0.3000
   90.0    13.00   0.0       98.0
   4
   34.69849 -118.50895
   34.54785 -118.10394
   34.40293 -117.75358
   34.31630 -117.54900
  1  1  3  S. San Andreas;NSB                                
 6.855 0.76010E-03 0.5000
 6.855 0.75730E-03 0.2000
 6.855 0.14230E-02 0.3000
   90.0    13.00   0.0       35.0
   5
   34.31630 -117.54900
   34.27090 -117.45100
   34.23284 -117.38869
   34.17314 -117.27416
   34.15003 -117.22202
  1  1  3  S. San Andreas;SSB                                
 6.945 0.54828E-04 0.5000
 6.945 0.53566E-04 0.2000
 6.945 0.51501E-04 0.3000
   90.0    13.00   0.0       43.0
   6
   34.15003 -117.22202
   34.09280 -117.06767
   34.07377 -117.01390
   34.03384 -116.90235
   34.01135 -116.87354
   33.95911 -116.81979
  1  1  3  S. San Andreas;BG                                 
 7.126 0.20159E-03 0.5000
 7.126 0.18402E-03 0.2000
 7.126 0.30528E-03 0.3000
   58.0    15.00   0.0       56.0
   9
   33.78825 -116.24629
   33.84852 -116.38300
   33.84812 -116.42653
   33.88466 -116.51689
   33.90702 -116.58485
   33.91757 -116.62387
   33.94416 -116.68581
   33.93741 -116.77859
   33.95316 -116.80139
  1  1  3  S. San Andreas;CO                                 
 7.041 0.72209E-02 0.5000
 7.041 0.64925E-02 0.2000
 7.041 0.85981E-02 0.3000
   90.0    10.00   0.6       69.0
   2
   33.78825 -116.24629
   33.35009 -115.71192
  1  1  3  S. San Andreas;PK+CH                              
 7.118 0.46912E-02 0.5000
 7.118 0.46884E-02 0.2000
 7.118 0.46992E-02 0.3000
   90.0     8.00   0.4       99.0
   5
   36.00265 -120.56089
   35.75198 -120.30005
   35.53331 -120.08675
   35.41391 -119.97030
   35.31417 -119.86595
  1  1  3  S. San Andreas;CH+CC                              
 7.415 0.25756E-03 0.5000
 7.415 0.25959E-03 0.2000
 7.415 0.25386E-03 0.3000
   90.0    14.00   0.0      122.0
   8
   35.75198 -120.30005
   35.53331 -120.08675
   35.41391 -119.97030
   35.31417 -119.86595
   35.16070 -119.70680
   35.04750 -119.55830
   34.98780 -119.47110
   34.94410 -119.40290
  1  1  3  S. San Andreas;CC+BB                              
 7.415 0.54076E-05 0.5000
 7.415 0.54076E-05 0.2000
 7.415 0.54076E-05 0.3000
   90.0    15.00   0.0      109.0
   9
   35.31420 -119.86590
   35.16070 -119.70680
   35.04750 -119.55830
   34.98780 -119.47110
   34.94410 -119.40290
   34.91571 -119.36286
   34.86390 -119.21000
   34.82896 -119.03009
   34.80760 -118.89012
  1  1  3  S. San Andreas;BB+NM                              
 7.316 0.10815E-05 0.5000
 7.316 0.10815E-05 0.2000
 7.316 0.10815E-05 0.3000
   90.0    15.00   0.0       87.0
   8
   34.94406 -119.40286
   34.91571 -119.36286
   34.86390 -119.21000
   34.82896 -119.03009
   34.80760 -118.89012
   34.80722 -118.88764
   34.77325 -118.76731
   34.69849 -118.50895
  1  1  3  S. San Andreas;NM+SM                              
 7.464 0.54076E-05 0.5000
 7.464 0.54076E-05 0.2000
 7.464 0.54076E-05 0.3000
   90.0    14.00   0.0      134.0
   7
   34.31630 -117.54900
   34.40293 -117.75358
   34.54785 -118.10394
   34.69849 -118.50895
   34.77325 -118.76731
   34.80722 -118.88764
   34.80760 -118.89012
  1  1  3  S. San Andreas;SM+NSB                             
 7.438 0.93793E-03 0.5000
 7.438 0.11716E-02 0.2000
 7.438 0.11012E-02 0.3000
   90.0    13.00   0.0      133.0
   8
   34.69849 -118.50895
   34.54785 -118.10394
   34.40293 -117.75358
   34.31630 -117.54900
   34.27090 -117.45100
   34.23284 -117.38869
   34.17314 -117.27416
   34.15003 -117.22202
  1  1  3  S. San Andreas;NSB+SSB                            
 7.203 0.11317E-02 0.5000
 7.203 0.68902E-03 0.2000
 7.203 0.12631E-02 0.3000
   90.0    13.00   0.0       79.0
  10
   34.31630 -117.54900
   34.27090 -117.45100
   34.23284 -117.38869
   34.17314 -117.27416
   34.15003 -117.22202
   34.09280 -117.06767
   34.07377 -117.01390
   34.03384 -116.90235
   34.01135 -116.87354
   33.95911 -116.81979
  1  1  3  S. San Andreas;SSB+BG                             
 7.346 0.54076E-05 0.5000
 7.346 0.54076E-05 0.2000
 7.346 0.54076E-05 0.3000
   70.7    14.00   0.0      101.0
  15
   33.78825 -116.24629
   33.84852 -116.38300
   33.84812 -116.42653
   33.88466 -116.51689
   33.90702 -116.58485
   33.91757 -116.62387
   33.94416 -116.68581
   33.93741 -116.77859
   33.95316 -116.80139
   33.95911 -116.81979
   34.01135 -116.87354
   34.03384 -116.90235
   34.07377 -117.01390
   34.09280 -117.06767
   34.15003 -117.22202
  1  1  3  S. San Andreas;BG+CO                              
 7.386 0.30763E-03 0.5000
 7.386 0.17903E-03 0.2000
 7.386 0.74676E-03 0.3000
   72.4    12.00   0.3      125.0
  10
   33.35009 -115.71192
   33.78825 -116.24629
   33.84852 -116.38300
   33.84812 -116.42653
   33.88466 -116.51689
   33.90702 -116.58485
   33.91757 -116.62387
   33.94416 -116.68581
   33.93741 -116.77859
   33.95316 -116.80139
  1  1  3  S. San Andreas;PK+CH+CC                           
 7.435 0.45494E-03 0.5000
 7.435 0.46604E-03 0.2000
 7.435 0.43474E-03 0.3000
   90.0    11.00   0.2      158.0
   9
   36.00265 -120.56089
   35.75198 -120.30005
   35.53331 -120.08675
   35.41391 -119.97030
   35.31417 -119.86595
   35.16070 -119.70680
   35.04750 -119.55830
   34.98780 -119.47110
   34.94410 -119.40290
  1  1  3  S. San Andreas;CH+CC+BB                           
 7.579 0.10815E-05 0.5000
 7.579 0.10815E-05 0.2000
 7.579 0.10815E-05 0.3000
   90.0    14.00   0.0      171.0
  12
   35.75198 -120.30005
   35.53331 -120.08675
   35.41391 -119.97030
   35.31417 -119.86595
   35.16070 -119.70680
   35.04750 -119.55830
   34.98780 -119.47110
   34.94410 -119.40290
   34.91571 -119.36286
   34.86390 -119.21000
   34.82896 -119.03009
   34.80760 -118.89012
  1  1  3  S. San Andreas;CC+BB+NM                           
 7.542 0.10815E-05 0.5000
 7.542 0.10815E-05 0.2000
 7.542 0.10815E-05 0.3000
   90.0    15.00   0.0      146.0
  12
   34.69849 -118.50895
   34.77325 -118.76731
   34.80722 -118.88764
   34.80760 -118.89012
   34.82896 -119.03009
   34.86390 -119.21000
   34.91571 -119.36286
   34.94410 -119.40290
   34.98780 -119.47110
   35.04750 -119.55830
   35.16070 -119.70680
   35.31420 -119.86590
  1  1  3  S. San Andreas;BB+NM+SM                           
 7.613 0.20283E-03 0.5000
 7.613 0.20510E-03 0.2000
 7.613 0.19201E-03 0.3000
   90.0    14.00   0.0      184.0
  11
   34.94406 -119.40286
   34.91571 -119.36286
   34.86390 -119.21000
   34.82896 -119.03009
   34.80760 -118.89012
   34.80722 -118.88764
   34.77325 -118.76731
   34.69849 -118.50895
   34.54785 -118.10394
   34.40293 -117.75358
   34.31630 -117.54900
  1  1  3  S. San Andreas;NM+SM+NSB                          
 7.559 0.77062E-04 0.5000
 7.559 0.80872E-04 0.2000
 7.559 0.86735E-04 0.3000
   90.0    13.00   0.0      170.0
  11
   34.15003 -117.22202
   34.17314 -117.27416
   34.23284 -117.38869
   34.27090 -117.45100
   34.31630 -117.54900
   34.40293 -117.75358
   34.54785 -118.10394
   34.69849 -118.50895
   34.77325 -118.76731
   34.80722 -118.88764
   34.80760 -118.89012
  1  1  3  S. San Andreas;SM+NSB+SSB                         
 7.559 0.64426E-03 0.5000
 7.559 0.64357E-03 0.2000
 7.559 0.67071E-03 0.3000
   90.0    13.00   0.0      176.0
  13
   34.69849 -118.50895
   34.54785 -118.10394
   34.40293 -117.75358
   34.31630 -117.54900
   34.27090 -117.45100
   34.23284 -117.38869
   34.17314 -117.27416
   34.15003 -117.22202
   34.09280 -117.06767
   34.07377 -117.01390
   34.03384 -116.90235
   34.01135 -116.87354
   33.95911 -116.81979
  1  1  3  S. San Andreas;NSB+SSB+BG                         
 7.467 0.24224E-03 0.5000
 7.467 0.39485E-04 0.2000
 7.467 0.19193E-03 0.3000
   75.4    14.00   0.0      136.0
  19
   33.78825 -116.24629
   33.84852 -116.38300
   33.84812 -116.42653
   33.88466 -116.51689
   33.90702 -116.58485
   33.91757 -116.62387
   33.94416 -116.68581
   33.93741 -116.77859
   33.95316 -116.80139
   33.95911 -116.81979
   34.01135 -116.87354
   34.03384 -116.90235
   34.07377 -117.01390
   34.09280 -117.06767
   34.15003 -117.22202
   34.17314 -117.27416
   34.23284 -117.38869
   34.27090 -117.45100
   34.31630 -117.54900
  1  1  3  S. San Andreas;SSB+BG+CO                          
 7.521 0.23992E-03 0.5000
 7.521 0.62655E-04 0.2000
 7.521 0.84487E-04 0.3000
   77.1    12.00   0.2      170.0
  16
   33.35009 -115.71192
   33.78825 -116.24629
   33.84852 -116.38300
   33.84812 -116.42653
   33.88466 -116.51689
   33.90702 -116.58485
   33.91757 -116.62387
   33.94416 -116.68581
   33.93741 -116.77859
   33.95316 -116.80139
   33.95911 -116.81979
   34.01135 -116.87354
   34.03384 -116.90235
   34.07377 -117.01390
   34.09280 -117.06767
   34.15003 -117.22202
  1  1  3  S. San Andreas;PK+CH+CC+BB                        
 7.593 0.88949E-03 0.5000
 7.593 0.91042E-03 0.2000
 7.593 0.84676E-03 0.3000
   90.0    12.00   0.1      208.0
  13
   36.00265 -120.56089
   35.75198 -120.30005
   35.53331 -120.08675
   35.41391 -119.97030
   35.31417 -119.86595
   35.16070 -119.70680
   35.04750 -119.55830
   34.98780 -119.47110
   34.94410 -119.40290
   34.91571 -119.36286
   34.86390 -119.21000
   34.82896 -119.03009
   34.80760 -118.89012
  1  1  3  S. San Andreas;CH+CC+BB+NM                        
 7.670 0.10815E-05 0.5000
 7.670 0.10815E-05 0.2000
 7.670 0.10815E-05 0.3000
   90.0    14.00   0.0      208.0
  15
   35.75198 -120.30005
   35.53331 -120.08675
   35.41391 -119.97030
   35.31417 -119.86595
   35.16070 -119.70680
   35.04750 -119.55830
   34.98780 -119.47110
   34.94410 -119.40290
   34.91571 -119.36286
   34.86390 -119.21000
   34.82896 -119.03009
   34.80760 -118.89012
   34.80722 -118.88764
   34.77325 -118.76731
   34.69849 -118.50895
  1  1  3  S. San Andreas;CC+BB+NM+SM                        
 7.741 0.21002E-03 0.5000
 7.741 0.21311E-03 0.2000
 7.741 0.18835E-03 0.3000
   90.0    14.00   0.0      243.0
  15
   35.31420 -119.86590
   35.16070 -119.70680
   35.04750 -119.55830
   34.98780 -119.47110
   34.94410 -119.40290
   34.91571 -119.36286
   34.86390 -119.21000
   34.82896 -119.03009
   34.80760 -118.89012
   34.80722 -118.88764
   34.77325 -118.76731
   34.69849 -118.50895
   34.54785 -118.10394
   34.40293 -117.75358
   34.31630 -117.54900
  1  1  3  S. San Andreas;BB+NM+SM+NSB                       
 7.683 0.10815E-05 0.5000
 7.683 0.10815E-05 0.2000
 7.683 0.10815E-05 0.3000
   90.0    14.00   0.0      220.0
  15
   34.94406 -119.40286
   34.91571 -119.36286
   34.86390 -119.21000
   34.82896 -119.03009
   34.80760 -118.89012
   34.80722 -118.88764
   34.77325 -118.76731
   34.69849 -118.50895
   34.54785 -118.10394
   34.40293 -117.75358
   34.31630 -117.54900
   34.27090 -117.45100
   34.23284 -117.38869
   34.17314 -117.27416
   34.15003 -117.22202
  1  1  3  S. San Andreas;NM+SM+NSB+SSB                      
 7.654 0.11123E-03 0.5000
 7.654 0.10190E-03 0.2000
 7.654 0.14240E-03 0.3000
   90.0    13.00   0.0      213.0
  16
   34.80760 -118.89012
   34.80722 -118.88764
   34.77325 -118.76731
   34.69849 -118.50895
   34.54785 -118.10394
   34.40293 -117.75358
   34.31630 -117.54900
   34.27090 -117.45100
   34.23284 -117.38869
   34.17314 -117.27416
   34.15003 -117.22202
   34.09280 -117.06767
   34.07377 -117.01390
   34.03384 -116.90235
   34.01135 -116.87354
   33.95911 -116.81979
  1  1  3  S. San Andreas;SM+NSB+SSB+BG                      
 7.695 0.31597E-03 0.5000
 7.695 0.24250E-03 0.2000
 7.695 0.28250E-03 0.3000
   81.4    13.00   0.0      234.0
  22
   33.78825 -116.24629
   33.84852 -116.38300
   33.84812 -116.42653
   33.88466 -116.51689
   33.90702 -116.58485
   33.91757 -116.62387
   33.94416 -116.68581
   33.93741 -116.77859
   33.95316 -116.80139
   33.95911 -116.81979
   34.01135 -116.87354
   34.03384 -116.90235
   34.07377 -117.01390
   34.09280 -117.06767
   34.15003 -117.22202
   34.17314 -117.27416
   34.23284 -117.38869
   34.27090 -117.45100
   34.31630 -117.54900
   34.40293 -117.75358
   34.54785 -118.10394
   34.69849 -118.50895
  1  1  3  S. San Andreas;NSB+SSB+BG+CO                      
 7.605 0.24080E-03 0.5000
 7.605 0.54076E-05 0.2000
 7.605 0.26372E-03 0.3000
   79.4    12.00   0.2      206.0
  20
   33.35009 -115.71192
   33.78825 -116.24629
   33.84852 -116.38300
   33.84812 -116.42653
   33.88466 -116.51689
   33.90702 -116.58485
   33.91757 -116.62387
   33.94416 -116.68581
   33.93741 -116.77859
   33.95316 -116.80139
   33.95911 -116.81979
   34.01135 -116.87354
   34.03384 -116.90235
   34.07377 -117.01390
   34.09280 -117.06767
   34.15003 -117.22202
   34.17314 -117.27416
   34.23284 -117.38869
   34.27090 -117.45100
   34.31630 -117.54900
  1  1  3  S. San Andreas;PK+CH+CC+BB+NM                     
 7.681 0.16727E-02 0.5000
 7.681 0.15742E-02 0.2000
 7.681 0.18839E-02 0.3000
   90.0    12.00   0.1      245.0
  16
   36.00265 -120.56089
   35.75198 -120.30005
   35.53331 -120.08675
   35.41391 -119.97030
   35.31417 -119.86595
   35.16070 -119.70680
   35.04750 -119.55830
   34.98780 -119.47110
   34.94410 -119.40290
   34.91571 -119.36286
   34.86390 -119.21000
   34.82896 -119.03009
   34.80760 -118.89012
   34.80722 -118.88764
   34.77325 -118.76731
   34.69849 -118.50895
  1  1  3  S. San Andreas;CH+CC+BB+NM+SM                     
 7.826 0.44591E-03 0.5000
 7.826 0.44851E-03 0.2000
 7.826 0.41779E-03 0.3000
   90.0    14.00   0.0      306.0
  18
   35.75198 -120.30005
   35.53331 -120.08675
   35.41391 -119.97030
   35.31417 -119.86595
   35.16070 -119.70680
   35.04750 -119.55830
   34.98780 -119.47110
   34.94410 -119.40290
   34.91571 -119.36286
   34.86390 -119.21000
   34.82896 -119.03009
   34.80760 -118.89012
   34.80722 -118.88764
   34.77325 -118.76731
   34.69849 -118.50895
   34.54785 -118.10394
   34.40293 -117.75358
   34.31630 -117.54900
  1  1  3  S. San Andreas;CC+BB+NM+SM+NSB                    
 7.794 0.93586E-04 0.5000
 7.794 0.95693E-04 0.2000
 7.794 0.10551E-03 0.3000
   90.0    14.00   0.0      279.0
  19
   35.31420 -119.86590
   35.16070 -119.70680
   35.04750 -119.55830
   34.98780 -119.47110
   34.94410 -119.40290
   34.91571 -119.36286
   34.86390 -119.21000
   34.82896 -119.03009
   34.80760 -118.89012
   34.80722 -118.88764
   34.77325 -118.76731
   34.69849 -118.50895
   34.54785 -118.10394
   34.40293 -117.75358
   34.31630 -117.54900
   34.27090 -117.45100
   34.23284 -117.38869
   34.17314 -117.27416
   34.15003 -117.22202
  1  1  3  S. San Andreas;BB+NM+SM+NSB+SSB                   
 7.756 0.52573E-04 0.5000
 7.756 0.51706E-04 0.2000
 7.756 0.55424E-04 0.3000
   90.0    14.00   0.0      263.0
  20
   34.94406 -119.40286
   34.91571 -119.36286
   34.86390 -119.21000
   34.82896 -119.03009
   34.80760 -118.89012
   34.80722 -118.88764
   34.77325 -118.76731
   34.69849 -118.50895
   34.54785 -118.10394
   34.40293 -117.75358
   34.31630 -117.54900
   34.27090 -117.45100
   34.23284 -117.38869
   34.17314 -117.27416
   34.15003 -117.22202
   34.09280 -117.06767
   34.07377 -117.01390
   34.03384 -116.90235
   34.01135 -116.87354
   33.95911 -116.81979
  1  1  3  S. San Andreas;NM+SM+NSB+SSB+BG                   
 7.767 0.67560E-04 0.5000
 7.767 0.56833E-04 0.2000
 7.767 0.70201E-04 0.3000
   82.7    14.00   0.0      271.0
  25
   33.78825 -116.24629
   33.84852 -116.38300
   33.84812 -116.42653
   33.88466 -116.51689
   33.90702 -116.58485
   33.91757 -116.62387
   33.94416 -116.68581
   33.93741 -116.77859
   33.95316 -116.80139
   33.95911 -116.81979
   34.01135 -116.87354
   34.03384 -116.90235
   34.07377 -117.01390
   34.09280 -117.06767
   34.15003 -117.22202
   34.17314 -117.27416
   34.23284 -117.38869
   34.27090 -117.45100
   34.31630 -117.54900
   34.40293 -117.75358
   34.54785 -118.10394
   34.69849 -118.50895
   34.77325 -118.76731
   34.80722 -118.88764
   34.80760 -118.89012
  1  1  3  S. San Andreas;SM+NSB+SSB+BG+CO                   
 7.782 0.38918E-03 0.5000
 7.782 0.18376E-03 0.2000
 7.782 0.39119E-03 0.3000
   82.9    13.00   0.1      303.0
  23
   33.35009 -115.71192
   33.78825 -116.24629
   33.84852 -116.38300
   33.84812 -116.42653
   33.88466 -116.51689
   33.90702 -116.58485
   33.91757 -116.62387
   33.94416 -116.68581
   33.93741 -116.77859
   33.95316 -116.80139
   33.95911 -116.81979
   34.01135 -116.87354
   34.03384 -116.90235
   34.07377 -117.01390
   34.09280 -117.06767
   34.15003 -117.22202
   34.17314 -117.27416
   34.23284 -117.38869
   34.27090 -117.45100
   34.31630 -117.54900
   34.40293 -117.75358
   34.54785 -118.10394
   34.69849 -118.50895
  1  1  3  S. San Andreas;PK+CH+CC+BB+NM+SM                  
 7.834 0.11088E-02 0.5000
 7.834 0.11468E-02 0.2000
 7.834 0.66732E-03 0.3000
   90.0    13.00   0.1      342.0
  19
   36.00265 -120.56089
   35.75198 -120.30005
   35.53331 -120.08675
   35.41391 -119.97030
   35.31417 -119.86595
   35.16070 -119.70680
   35.04750 -119.55830
   34.98780 -119.47110
   34.94410 -119.40290
   34.91571 -119.36286
   34.86390 -119.21000
   34.82896 -119.03009
   34.80760 -118.89012
   34.80722 -118.88764
   34.77325 -118.76731
   34.69849 -118.50895
   34.54785 -118.10394
   34.40293 -117.75358
   34.31630 -117.54900
  1  1  3  S. San Andreas;CH+CC+BB+NM+SM+NSB                 
 7.870 0.10815E-05 0.5000
 7.870 0.10815E-05 0.2000
 7.870 0.10815E-05 0.3000
   90.0    14.00   0.0      341.0
  22
   35.75198 -120.30005
   35.53331 -120.08675
   35.41391 -119.97030
   35.31417 -119.86595
   35.16070 -119.70680
   35.04750 -119.55830
   34.98780 -119.47110
   34.94410 -119.40290
   34.91571 -119.36286
   34.86390 -119.21000
   34.82896 -119.03009
   34.80760 -118.89012
   34.80722 -118.88764
   34.77325 -118.76731
   34.69849 -118.50895
   34.54785 -118.10394
   34.40293 -117.75358
   34.31630 -117.54900
   34.27090 -117.45100
   34.23284 -117.38869
   34.17314 -117.27416
   34.15003 -117.22202
  1  1  3  S. San Andreas;CC+BB+NM+SM+NSB+SSB                
 7.852 0.96721E-04 0.5000
 7.852 0.93371E-04 0.2000
 7.852 0.10913E-03 0.3000
   90.0    14.00   0.0      322.0
  24
   33.95911 -116.81979
   34.01135 -116.87354
   34.03384 -116.90235
   34.07377 -117.01390
   34.09280 -117.06767
   34.15003 -117.22202
   34.17314 -117.27416
   34.23284 -117.38869
   34.27090 -117.45100
   34.31630 -117.54900
   34.40293 -117.75358
   34.54785 -118.10394
   34.69849 -118.50895
   34.77325 -118.76731
   34.80722 -118.88764
   34.80760 -118.89012
   34.82896 -119.03009
   34.86390 -119.21000
   34.91571 -119.36286
   34.94410 -119.40290
   34.98780 -119.47110
   35.04750 -119.55830
   35.16070 -119.70680
   35.31420 -119.86590
  1  1  3  S. San Andreas;BB+NM+SM+NSB+SSB+BG                
 7.847 0.10815E-05 0.5000
 7.847 0.10815E-05 0.2000
 7.847 0.10815E-05 0.3000
   83.9    14.00   0.0      321.0
  29
   33.78825 -116.24629
   33.84852 -116.38300
   33.84812 -116.42653
   33.88466 -116.51689
   33.90702 -116.58485
   33.91757 -116.62387
   33.94416 -116.68581
   33.93741 -116.77859
   33.95316 -116.80139
   33.95911 -116.81979
   34.01135 -116.87354
   34.03384 -116.90235
   34.07377 -117.01390
   34.09280 -117.06767
   34.15003 -117.22202
   34.17314 -117.27416
   34.23284 -117.38869
   34.27090 -117.45100
   34.31630 -117.54900
   34.40293 -117.75358
   34.54785 -118.10394
   34.69849 -118.50895
   34.77325 -118.76731
   34.80722 -118.88764
   34.80760 -118.89012
   34.82896 -119.03009
   34.86390 -119.21000
   34.91571 -119.36286
   34.94406 -119.40286
  1  1  3  S. San Andreas;NM+SM+NSB+SSB+BG+CO                
 7.841 0.64772E-04 0.5000
 7.841 0.49016E-04 0.2000
 7.841 0.71440E-04 0.3000
   83.8    13.00   0.1      340.0
  26
   33.35009 -115.71192
   33.78825 -116.24629
   33.84852 -116.38300
   33.84812 -116.42653
   33.88466 -116.51689
   33.90702 -116.58485
   33.91757 -116.62387
   33.94416 -116.68581
   33.93741 -116.77859
   33.95316 -116.80139
   33.95911 -116.81979
   34.01135 -116.87354
   34.03384 -116.90235
   34.07377 -117.01390
   34.09280 -117.06767
   34.15003 -117.22202
   34.17314 -117.27416
   34.23284 -117.38869
   34.27090 -117.45100
   34.31630 -117.54900
   34.40293 -117.75358
   34.54785 -118.10394
   34.69849 -118.50895
   34.77325 -118.76731
   34.80722 -118.88764
   34.80760 -118.89012
  1  1  3  S. San Andreas;PK+CH+CC+BB+NM+SM+NSB              
 7.877 0.45855E-03 0.5000
 7.877 0.50908E-03 0.2000
 7.877 0.74512E-03 0.3000
   90.0    13.00   0.1      377.0
  23
   36.00265 -120.56089
   35.75198 -120.30005
   35.53331 -120.08675
   35.41391 -119.97030
   35.31417 -119.86595
   35.16070 -119.70680
   35.04750 -119.55830
   34.98780 -119.47110
   34.94410 -119.40290
   34.91571 -119.36286
   34.86390 -119.21000
   34.82896 -119.03009
   34.80760 -118.89012
   34.80722 -118.88764
   34.77325 -118.76731
   34.69849 -118.50895
   34.54785 -118.10394
   34.40293 -117.75358
   34.31630 -117.54900
   34.27090 -117.45100
   34.23284 -117.38869
   34.17314 -117.27416
   34.15003 -117.22202
  1  1  3  S. San Andreas;CH+CC+BB+NM+SM+NSB+SSB             
 7.919 0.53708E-04 0.5000
 7.919 0.52898E-04 0.2000
 7.919 0.56972E-04 0.3000
   90.0    14.00   0.0      384.0
  27
   33.95911 -116.81979
   34.01135 -116.87354
   34.03384 -116.90235
   34.07377 -117.01390
   34.09280 -117.06767
   34.15003 -117.22202
   34.17314 -117.27416
   34.23284 -117.38869
   34.27090 -117.45100
   34.31630 -117.54900
   34.40293 -117.75358
   34.54785 -118.10394
   34.69849 -118.50895
   34.77325 -118.76731
   34.80722 -118.88764
   34.80760 -118.89012
   34.82896 -119.03009
   34.86390 -119.21000
   34.91571 -119.36286
   34.94410 -119.40290
   34.98780 -119.47110
   35.04750 -119.55830
   35.16070 -119.70680
   35.31417 -119.86595
   35.41391 -119.97030
   35.53331 -120.08675
   35.75198 -120.30005
  1  1  3  S. San Andreas;CC+BB+NM+SM+NSB+SSB+BG             
 7.927 0.47610E-04 0.5000
 7.927 0.44586E-04 0.2000
 7.927 0.49346E-04 0.3000
   84.9    14.00   0.0      380.0
  33
   33.78825 -116.24629
   33.84852 -116.38300
   33.84812 -116.42653
   33.88466 -116.51689
   33.90702 -116.58485
   33.91757 -116.62387
   33.94416 -116.68581
   33.93741 -116.77859
   33.95316 -116.80139
   33.95911 -116.81979
   34.01135 -116.87354
   34.03384 -116.90235
   34.07377 -117.01390
   34.09280 -117.06767
   34.15003 -117.22202
   34.17314 -117.27416
   34.23284 -117.38869
   34.27090 -117.45100
   34.31630 -117.54900
   34.40293 -117.75358
   34.54785 -118.10394
   34.69849 -118.50895
   34.77325 -118.76731
   34.80722 -118.88764
   34.80760 -118.89012
   34.82896 -119.03009
   34.86390 -119.21000
   34.91571 -119.36286
   34.94410 -119.40290
   34.98780 -119.47110
   35.04750 -119.55830
   35.16070 -119.70680
   35.31420 -119.86590
  1  1  3  S. San Andreas;BB+NM+SM+NSB+SSB+BG+CO             
 7.910 0.48469E-04 0.5000
 7.910 0.44166E-04 0.2000
 7.910 0.50980E-04 0.3000
   84.7    13.00   0.1      390.0
  30
   33.35009 -115.71192
   33.78825 -116.24629
   33.84852 -116.38300
   33.84812 -116.42653
   33.88466 -116.51689
   33.90702 -116.58485
   33.91757 -116.62387
   33.94416 -116.68581
   33.93741 -116.77859
   33.95316 -116.80139
   33.95911 -116.81979
   34.01135 -116.87354
   34.03384 -116.90235
   34.07377 -117.01390
   34.09280 -117.06767
   34.15003 -117.22202
   34.17314 -117.27416
   34.23284 -117.38869
   34.27090 -117.45100
   34.31630 -117.54900
   34.40293 -117.75358
   34.54785 -118.10394
   34.69849 -118.50895
   34.77325 -118.76731
   34.80722 -118.88764
   34.80760 -118.89012
   34.82896 -119.03009
   34.86390 -119.21000
   34.91571 -119.36286
   34.94406 -119.40286
  1  1  3  S. San Andreas;PK+CH+CC+BB+NM+SM+NSB+SSB          
 7.925 0.10769E-03 0.5000
 7.925 0.10447E-03 0.2000
 7.925 0.12084E-03 0.3000
   90.0    13.00   0.1      421.0
  28
   33.95911 -116.81979
   34.01135 -116.87354
   34.03384 -116.90235
   34.07377 -117.01390
   34.09280 -117.06767
   34.15003 -117.22202
   34.17314 -117.27416
   34.23284 -117.38869
   34.27090 -117.45100
   34.31630 -117.54900
   34.40293 -117.75358
   34.54785 -118.10394
   34.69849 -118.50895
   34.77325 -118.76731
   34.80722 -118.88764
   34.80760 -118.89012
   34.82896 -119.03009
   34.86390 -119.21000
   34.91571 -119.36286
   34.94410 -119.40290
   34.98780 -119.47110
   35.04750 -119.55830
   35.16070 -119.70680
   35.31417 -119.86595
   35.41391 -119.97030
   35.53331 -120.08675
   35.75198 -120.30005
   36.00265 -120.56089
  1  1  3  S. San Andreas;CH+CC+BB+NM+SM+NSB+SSB+BG          
 7.984 0.10815E-05 0.5000
 7.984 0.10815E-05 0.2000
 7.984 0.10815E-05 0.3000
   85.6    14.00   0.0      442.0
  36
   33.78825 -116.24629
   33.84852 -116.38300
   33.84812 -116.42653
   33.88466 -116.51689
   33.90702 -116.58485
   33.91757 -116.62387
   33.94416 -116.68581
   33.93741 -116.77859
   33.95316 -116.80139
   33.95911 -116.81979
   34.01135 -116.87354
   34.03384 -116.90235
   34.07377 -117.01390
   34.09280 -117.06767
   34.15003 -117.22202
   34.17314 -117.27416
   34.23284 -117.38869
   34.27090 -117.45100
   34.31630 -117.54900
   34.40293 -117.75358
   34.54785 -118.10394
   34.69849 -118.50895
   34.77325 -118.76731
   34.80722 -118.88764
   34.80760 -118.89012
   34.82896 -119.03009
   34.86390 -119.21000
   34.91571 -119.36286
   34.94410 -119.40290
   34.98780 -119.47110
   35.04750 -119.55830
   35.16070 -119.70680
   35.31417 -119.86595
   35.41391 -119.97030
   35.53331 -120.08675
   35.75198 -120.30005
  1  1  3  S. San Andreas;CC+BB+NM+SM+NSB+SSB+BG+CO          
 7.980 0.10513E-04 0.5000
 7.980 0.10338E-04 0.2000
 7.980 0.10623E-04 0.3000
   85.5    13.00   0.1      449.0
  34
   33.35009 -115.71192
   33.78825 -116.24629
   33.84852 -116.38300
   33.84812 -116.42653
   33.88466 -116.51689
   33.90702 -116.58485
   33.91757 -116.62387
   33.94416 -116.68581
   33.93741 -116.77859
   33.95316 -116.80139
   33.95911 -116.81979
   34.01135 -116.87354
   34.03384 -116.90235
   34.07377 -117.01390
   34.09280 -117.06767
   34.15003 -117.22202
   34.17314 -117.27416
   34.23284 -117.38869
   34.27090 -117.45100
   34.31630 -117.54900
   34.40293 -117.75358
   34.54785 -118.10394
   34.69849 -118.50895
   34.77325 -118.76731
   34.80722 -118.88764
   34.80760 -118.89012
   34.82896 -119.03009
   34.86390 -119.21000
   34.91571 -119.36286
   34.94410 -119.40290
   34.98780 -119.47110
   35.04750 -119.55830
   35.16070 -119.70680
   35.31420 -119.86590
  1  1  3  S. San Andreas;PK+CH+CC+BB+NM+SM+NSB+SSB+BG       
 7.989 0.50462E-04 0.5000
 7.989 0.47422E-04 0.2000
 7.989 0.52318E-04 0.3000
   85.6    13.00   0.1      479.0
  37
   33.78825 -116.24629
   33.84852 -116.38300
   33.84812 -116.42653
   33.88466 -116.51689
   33.90702 -116.58485
   33.91757 -116.62387
   33.94416 -116.68581
   33.93741 -116.77859
   33.95316 -116.80139
   33.95911 -116.81979
   34.01135 -116.87354
   34.03384 -116.90235
   34.07377 -117.01390
   34.09280 -117.06767
   34.15003 -117.22202
   34.17314 -117.27416
   34.23284 -117.38869
   34.27090 -117.45100
   34.31630 -117.54900
   34.40293 -117.75358
   34.54785 -118.10394
   34.69849 -118.50895
   34.77325 -118.76731
   34.80722 -118.88764
   34.80760 -118.89012
   34.82896 -119.03009
   34.86390 -119.21000
   34.91571 -119.36286
   34.94410 -119.40290
   34.98780 -119.47110
   35.04750 -119.55830
   35.16070 -119.70680
   35.31417 -119.86595
   35.41391 -119.97030
   35.53331 -120.08675
   35.75198 -120.30005
   36.00265 -120.56089
  1  1  3  S. San Andreas;CH+CC+BB+NM+SM+NSB+SSB+BG+CO       
 8.031 0.10815E-05 0.5000
 8.031 0.10815E-05 0.2000
 8.031 0.10815E-05 0.3000
   86.0    13.00   0.1      512.0
  37
   33.35009 -115.71192
   33.78825 -116.24629
   33.84852 -116.38300
   33.84812 -116.42653
   33.88466 -116.51689
   33.90702 -116.58485
   33.91757 -116.62387
   33.94416 -116.68581
   33.93741 -116.77859
   33.95316 -116.80139
   33.95911 -116.81979
   34.01135 -116.87354
   34.03384 -116.90235
   34.07377 -117.01390
   34.09280 -117.06767
   34.15003 -117.22202
   34.17314 -117.27416
   34.23284 -117.38869
   34.27090 -117.45100
   34.31630 -117.54900
   34.40293 -117.75358
   34.54785 -118.10394
   34.69849 -118.50895
   34.77325 -118.76731
   34.80722 -118.88764
   34.80760 -118.89012
   34.82896 -119.03009
   34.86390 -119.21000
   34.91571 -119.36286
   34.94410 -119.40290
   34.98780 -119.47110
   35.04750 -119.55830
   35.16070 -119.70680
   35.31417 -119.86595
   35.41391 -119.97030
   35.53331 -120.08675
   35.75198 -120.30005
  1  1  3  S. San Andreas;PK+CH+CC+BB+NM+SM+NSB+SSB+BG+CO    
 8.036 0.88554E-04 0.5000
 8.036 0.70863E-04 0.2000
 8.036 0.10032E-03 0.3000
   86.1    13.00   0.1      548.0
  38
   33.35009 -115.71192
   33.78825 -116.24629
   33.84852 -116.38300
   33.84812 -116.42653
   33.88466 -116.51689
   33.90702 -116.58485
   33.91757 -116.62387
   33.94416 -116.68581
   33.93741 -116.77859
   33.95316 -116.80139
   33.95911 -116.81979
   34.01135 -116.87354
   34.03384 -116.90235
   34.07377 -117.01390
   34.09280 -117.06767
   34.15003 -117.22202
   34.17314 -117.27416
   34.23284 -117.38869
   34.27090 -117.45100
   34.31630 -117.54900
   34.40293 -117.75358
   34.54785 -118.10394
   34.69849 -118.50895
   34.77325 -118.76731
   34.80722 -118.88764
   34.80760 -118.89012
   34.82896 -119.03009
   34.86390 -119.21000
   34.91571 -119.36286
   34.94410 -119.40290
   34.98780 -119.47110
   35.04750 -119.55830
   35.16070 -119.70680
   35.31417 -119.86595
   35.41391 -119.97030
   35.53331 -120.08675
   35.75198 -120.30005
   36.00265 -120.56089
  1  1  3  Hayward-Rodgers Creek;RC                          
 7.066 0.29433E-02 0.5000
 7.066 0.29433E-02 0.2000
 7.066 0.29433E-02 0.3000
   90.0    12.00   0.1       62.0
   3
   38.08750 -122.43420
   38.33150 -122.61360
   38.57520 -122.78830
  1  1  3  Hayward-Rodgers Creek;HN                          
 6.599 0.29542E-02 0.5000
 6.599 0.29542E-02 0.2000
 6.599 0.29542E-02 0.3000
   90.0     7.00   2.4       35.0
   2
   37.82730 -122.21280
   38.08750 -122.43420
  1  1  3  Hayward-Rodgers Creek;HS                          
 6.777 0.31187E-02 0.5000
 6.777 0.31187E-02 0.2000
 6.777 0.31187E-02 0.3000
   90.0     7.00   2.4       52.0
   4
   37.45400 -121.84900
   37.67600 -122.08240
   37.72990 -122.12840
   37.82730 -122.21280
  1  1  3  Hayward-Rodgers Creek;RC+HN                       
 7.194 0.50606E-03 0.5000
 7.194 0.50606E-03 0.2000
 7.194 0.50606E-03 0.3000
   90.0    10.00   0.7       97.0
   4
   38.57520 -122.78830
   38.33150 -122.61360
   38.08750 -122.43420
   37.82730 -122.21280
  1  1  3  Hayward-Rodgers Creek;HN+HS                       
 6.998 0.15422E-02 0.5000
 6.998 0.15422E-02 0.2000
 6.998 0.15422E-02 0.3000
   90.0     7.00   2.4       87.0
   5
   38.08750 -122.43420
   37.82730 -122.21280
   37.72990 -122.12840
   37.67600 -122.08240
   37.45400 -121.84900
  1  1  3  Hayward-Rodgers Creek;RC+HN+HS                    
 7.334 0.29393E-03 0.5000
 7.334 0.29393E-03 0.2000
 7.334 0.29393E-03 0.3000
   90.0     9.00   1.2      150.0
   7
   38.57520 -122.78830
   38.33150 -122.61360
   38.08750 -122.43420
   37.82730 -122.21280
   37.72990 -122.12840
   37.67600 -122.08240
   37.45400 -121.84900
  1  1  3  Calaveras;CN                                      
 6.872 0.14097E-02 0.5000
 6.872 0.14097E-02 0.2000
 6.872 0.14097E-02 0.3000
   90.0    10.00   1.3       45.0
   8
   37.81730 -122.00940
   37.71490 -121.93790
   37.69390 -121.93270
   37.56750 -121.86200
   37.53850 -121.85110
   37.51010 -121.83490
   37.48880 -121.82350
   37.44500 -121.80710
  1  1  3  Calaveras;CC                                      
 6.392 0.73975E-02 0.5000
 6.392 0.73975E-02 0.2000
 6.392 0.73975E-02 0.3000
   90.0     3.00   4.2       59.0
   7
   37.44500 -121.80710
   37.39960 -121.76180
   37.34300 -121.71490
   37.24810 -121.64830
   37.15230 -121.58010
   37.09580 -121.54240
   36.98980 -121.46780
  1  1  3  Calaveras;CS                                      
 5.829 0.21239E-01 0.5000
 5.829 0.21239E-01 0.2000
 5.829 0.21239E-01 0.3000
   90.0     2.00   4.4       19.0
   2
   36.82570 -121.39560
   36.98980 -121.46780
  1  1  3  Calaveras;CN+CC                                   
 6.996 0.14458E-03 0.5000
 6.996 0.14458E-03 0.2000
 6.996 0.14458E-03 0.3000
   90.0     6.00   2.0      104.0
  14
   37.81730 -122.00940
   37.71490 -121.93790
   37.69390 -121.93270
   37.56750 -121.86200
   37.53850 -121.85110
   37.51010 -121.83490
   37.48880 -121.82350
   37.44500 -121.80710
   37.39960 -121.76180
   37.34300 -121.71490
   37.24810 -121.64830
   37.15230 -121.58010
   37.09580 -121.54240
   36.98980 -121.46780
  1  1  3  Calaveras;CC+CS                                   
 6.497 0.35471E-02 0.5000
 6.497 0.35471E-02 0.2000
 6.497 0.35471E-02 0.3000
   90.0     3.00   4.2       78.0
   8
   37.44500 -121.80710
   37.39960 -121.76180
   37.34300 -121.71490
   37.24810 -121.64830
   37.15230 -121.58010
   37.09580 -121.54240
   36.98980 -121.46780
   36.82570 -121.39560
  1  1  3  Calaveras;CN+CC+CS                                
 7.025 0.13371E-02 0.5000
 7.025 0.13371E-02 0.2000
 7.025 0.13371E-02 0.3000
   90.0     5.00   2.2      123.0
  15
   37.81730 -122.00940
   37.71490 -121.93790
   37.69390 -121.93270
   37.56750 -121.86200
   37.53850 -121.85110
   37.51010 -121.83490
   37.48880 -121.82350
   37.44500 -121.80710
   37.39960 -121.76180
   37.34300 -121.71490
   37.24810 -121.64830
   37.15230 -121.58010
   37.09580 -121.54240
   36.98980 -121.46780
   36.82570 -121.39560
