0       !Mar 26 2008 version Ca-A, moment balanced, HBakun. Use hazFXnga8c
  24.60  50.00 0.050   !
 -125.00 -100.00 0.050   !Hanks Bakun M(A) only. 3 fault deformation models.
760. 2.0        ! vs30 and dbasin
1. 200.
5        5 periods try some long
0. 1. 0. PGA
0.375 0.210 0.245
0.230 0.225 0.23
0.400 0.360 0.31
../output/NGA/aFault_MoBal.HB.pga
19
.005 .007 .0098 .0137 .0192 .0269 .0376 .0527 .0738 .103 .145 .203 .284 .397 .556 .778 1.09 1.52 2.13 
3
13 0.3333  1000. 0.3333 0 Boore and Atkinson Mar 2008
14 0.3333  1000. 0.3333 0 CB
15 0.3333  1000. 0.3333 0 CY
1.0 1. 0. 1.0-s sa
0.375 0.210 0.245
0.230 0.225 0.23
0.400 0.360 0.31
../output/NGA/aFault_MoBal.HB.1hz
20
.0025 .00375 .00563 .00844 .0127 .0190 .0285 .0427 .0641 .0961 .144 .216 .324 .487 .730 1.09 1.64 2.46 3.69 5.54
3
13 0.3333  1000. 0.3333 0 Boore and Atkinson Mar 2008
14 0.3333  1000. 0.3333 0 CB
15 0.3333  1000. 0.3333 0 CY
0.2 1. 0.  5hz PSA
0.375 0.210 0.245
0.230 0.225 0.23
0.400 0.360 0.31
../output/NGA/aFault_MoBal.HB.5hz
19                        
.005 .0075 0.0113 .0169 .0253 .0380 .0570 .0854 .128 .192 .288 .432 .649 .973 1.46 2.19 3.28 4.92
 7.38 
3
13 0.3333  1000. 0.3333 0 Boore and Atkinson Mar 2008
14 0.3333  1000. 0.3333 0 CB
15 0.3333  1000. 0.3333 0 CY
0.5 1. 0.  PSA
0.375 0.210 0.245
0.230 0.225 0.23
0.400 0.360 0.31
../output/NGA/aFault_MoBal.HB.2hz
20
.0025 .005 .0075 0.0113 .0169 .0253 .0380 .0570 .0854 .128 .192 .288 .432 .649 .973 1.46 2.19 3.28 4.92 7.38 
 3
13 0.3333  1000. 0.3333 0 Boore and Atkinson Mar 2008
14 0.3333  1000. 0.3333 0 CB
15 0.3333  1000. 0.3333 0 CY
2.0 1. 0.  PSA
0.375 0.210 0.245
0.230 0.225 0.23
0.400 0.360 0.31
../output/NGA/aFault_MoBal.HB.2sc
20
.0025 .006 .0098 .0137 .0192 .0269 .0376 .0527 .0738 .103 .145 .203 .284 .397 .556 .778 1.09 1.52 2.13 3.3
3
13 0.3333  1000. 0.3333 0 Boore and Atkinson Mar 2008
14 0.3334  1000. 0.3333 0 CB
15 0.3333  1000. 0.3333 0 CY
1. 1.
1
0
1
.12 5
  1  1  3  Elsinore;W          combined w/merge3.f           
 6.842 0.14791E-02 0.5000
 6.842 0.14791E-02 0.2000
 6.842 0.14791E-02 0.3000
   75.0    15.00   0.0       46.0
   7
   33.82890 -117.59000
   33.85110 -117.63600
   33.87330 -117.71700
   33.90740 -117.79200
   33.92970 -117.85200
   33.97120 -117.99200
   33.99500 -118.04800
  1  1  3  Elsinore;GI                                       
 6.669 0.23921E-02 0.5000
 6.669 0.23921E-02 0.2000
 6.669 0.23921E-02 0.3000
   90.0    13.00   0.0       37.0
   8
   33.82890 -117.59000
   33.81290 -117.54800
   33.74509 -117.46332
   33.73183 -117.44568
   33.71851 -117.42415
   33.70453 -117.40265
   33.68522 -117.37270
   33.62646 -117.27443
  1  1  3  Elsinore;T                                        
 6.892 0.37540E-03 0.5000
 6.892 0.37540E-03 0.2000
 6.892 0.37540E-03 0.3000
   90.0    14.00   0.0       52.0
  10
   33.66770 -117.38900
   33.63098 -117.31566
   33.61160 -117.28099
   33.55897 -117.20448
   33.52894 -117.17214
   33.49754 -117.14172
   33.42297 -117.05333
   33.39140 -117.03091
   33.37030 -117.01517
   33.34092 -117.00819
  1  1  3  Elsinore;J                                        
 7.276 0.27038E-04 0.5000
 7.276 0.27038E-04 0.2000
 7.276 0.27038E-04 0.3000
   84.0    19.00   0.0       75.0
  11
   32.94965 -116.35568
   32.98262 -116.40701
   33.01088 -116.46024
   33.04934 -116.51917
   33.12250 -116.62800
   33.17807 -116.69025
   33.20868 -116.72922
   33.24650 -116.79100
   33.27900 -116.84400
   33.33200 -116.95200
   33.34090 -117.00820
  1  1  3  Elsinore;CM                                       
 6.694 0.22814E-02 0.5000
 6.694 0.22814E-02 0.2000
 6.694 0.22814E-02 0.3000
   82.0    13.00   0.0       39.0
   6
   32.77900 -116.00600
   32.81440 -116.09900
   32.83770 -116.17800
   32.88921 -116.23022
   32.93081 -116.26443
   32.97477 -116.33667
  1  1  3  Elsinore;W+GI                                     
 7.158 0.15163E-03 0.5000
 7.158 0.15163E-03 0.2000
 7.158 0.15163E-03 0.3000
   81.3    14.00   0.0       83.0
  14
   33.62646 -117.27443
   33.68522 -117.37270
   33.70453 -117.40265
   33.71851 -117.42415
   33.73183 -117.44568
   33.74509 -117.46332
   33.81290 -117.54800
   33.82890 -117.59000
   33.85110 -117.63600
   33.87330 -117.71700
   33.90740 -117.79200
   33.92970 -117.85200
   33.97120 -117.99200
   33.99500 -118.04800
  1  1  3  Elsinore;GI+T                                     
 7.187 0.13519E-03 0.5000
 7.187 0.13519E-03 0.2000
 7.187 0.13519E-03 0.3000
   90.0    14.00   0.0       78.0
  15
   33.82890 -117.59000
   33.81290 -117.54800
   33.74509 -117.46332
   33.73183 -117.44568
   33.71851 -117.42415
   33.70453 -117.40265
   33.68522 -117.37270
   33.61160 -117.28099
   33.55897 -117.20448
   33.52894 -117.17214
   33.49754 -117.14172
   33.42297 -117.05333
   33.39140 -117.03091
   33.37030 -117.01517
   33.34092 -117.00819
  1  1  3  Elsinore;T+J                                      
 7.516 0.13519E-03 0.5000
 7.516 0.13519E-03 0.2000
 7.516 0.13519E-03 0.3000
   86.0    17.00   0.0      127.0
  20
   32.94965 -116.35568
   32.98262 -116.40701
   33.01088 -116.46024
   33.04934 -116.51917
   33.12250 -116.62800
   33.17807 -116.69025
   33.20868 -116.72922
   33.24650 -116.79100
   33.27900 -116.84400
   33.33200 -116.95200
   33.34092 -117.00819
   33.37030 -117.01517
   33.39140 -117.03091
   33.42297 -117.05333
   33.49754 -117.14172
   33.52894 -117.17214
   33.55897 -117.20448
   33.61160 -117.28099
   33.63098 -117.31566
   33.66770 -117.38900
  1  1  3  Elsinore;J+CM                                     
 7.455 0.31177E-03 0.5000
 7.455 0.31177E-03 0.2000
 7.455 0.31177E-03 0.3000
   83.5    17.00   0.0      118.0
  17
   32.77900 -116.00600
   32.81440 -116.09900
   32.83770 -116.17800
   32.88921 -116.23022
   32.93081 -116.26443
   32.97477 -116.33667
   32.94965 -116.35568
   32.98262 -116.40701
   33.01088 -116.46024
   33.04934 -116.51917
   33.12250 -116.62800
   33.17807 -116.69025
   33.20868 -116.72922
   33.24650 -116.79100
   33.27900 -116.84400
   33.33200 -116.95200
   33.34090 -117.00820
  1  1  3  Elsinore;W+GI+T                                   
 7.441 0.97781E-04 0.5000
 7.441 0.97781E-04 0.2000
 7.441 0.97781E-04 0.3000
   83.6    14.00   0.0      124.0
  21
   33.34092 -117.00819
   33.37030 -117.01517
   33.39140 -117.03091
   33.42297 -117.05333
   33.49754 -117.14172
   33.52894 -117.17214
   33.55897 -117.20448
   33.61160 -117.28099
   33.68522 -117.37270
   33.70453 -117.40265
   33.71851 -117.42415
   33.73183 -117.44568
   33.74509 -117.46332
   33.81290 -117.54800
   33.82890 -117.59000
   33.85110 -117.63600
   33.87330 -117.71700
   33.90740 -117.79200
   33.92970 -117.85200
   33.97120 -117.99200
   33.99500 -118.04800
  1  1  3  Elsinore;GI+T+J                                   
 7.634 0.13519E-03 0.5000
 7.634 0.13519E-03 0.2000
 7.634 0.13519E-03 0.3000
   86.3    17.00   0.0      153.0
  25
   32.94965 -116.35568
   32.98262 -116.40701
   33.01088 -116.46024
   33.04934 -116.51917
   33.12250 -116.62800
   33.17807 -116.69025
   33.20868 -116.72922
   33.24650 -116.79100
   33.27900 -116.84400
   33.33200 -116.95200
   33.34092 -117.00819
   33.37030 -117.01517
   33.39140 -117.03091
   33.42297 -117.05333
   33.49754 -117.14172
   33.52894 -117.17214
   33.55897 -117.20448
   33.61160 -117.28099
   33.68522 -117.37270
   33.70453 -117.40265
   33.71851 -117.42415
   33.73183 -117.44568
   33.74509 -117.46332
   33.81290 -117.54800
   33.82890 -117.59000
  1  1  3  Elsinore;T+J+CM                                   
 7.640 0.27418E-03 0.5000
 7.640 0.27418E-03 0.2000
 7.640 0.27418E-03 0.3000
   85.3    16.00   0.0      169.0
  26
   32.77900 -116.00600
   32.81440 -116.09900
   32.83770 -116.17800
   32.88921 -116.23022
   32.93081 -116.26443
   32.97477 -116.33667
   32.94965 -116.35568
   32.98262 -116.40701
   33.01088 -116.46024
   33.04934 -116.51917
   33.12250 -116.62800
   33.17807 -116.69025
   33.20868 -116.72922
   33.24650 -116.79100
   33.27900 -116.84400
   33.33200 -116.95200
   33.34092 -117.00819
   33.37030 -117.01517
   33.39140 -117.03091
   33.42297 -117.05333
   33.49754 -117.14172
   33.52894 -117.17214
   33.55897 -117.20448
   33.61160 -117.28099
   33.63098 -117.31566
   33.66770 -117.38900
  1  1  3  Elsinore;W+GI+T+J                                 
 7.766 0.27038E-04 0.5000
 7.766 0.27038E-04 0.2000
 7.766 0.27038E-04 0.3000
   83.8    16.00   0.0      199.0
  31
   32.94965 -116.35568
   32.98262 -116.40701
   33.01088 -116.46024
   33.04934 -116.51917
   33.12250 -116.62800
   33.17807 -116.69025
   33.20868 -116.72922
   33.24650 -116.79100
   33.27900 -116.84400
   33.33200 -116.95200
   33.34092 -117.00819
   33.37030 -117.01517
   33.39140 -117.03091
   33.42297 -117.05333
   33.49754 -117.14172
   33.52894 -117.17214
   33.55897 -117.20448
   33.61160 -117.28099
   33.68522 -117.37270
   33.70453 -117.40265
   33.71851 -117.42415
   33.73183 -117.44568
   33.74509 -117.46332
   33.81290 -117.54800
   33.82890 -117.59000
   33.85110 -117.63600
   33.87330 -117.71700
   33.90740 -117.79200
   33.92970 -117.85200
   33.97120 -117.99200
   33.99500 -118.04800
  1  1  3  Elsinore;GI+T+J+CM                                
 7.737 0.13519E-03 0.5000
 7.737 0.13519E-03 0.2000
 7.737 0.13519E-03 0.3000
   85.5    16.00   0.0      195.0
  31
   32.77900 -116.00600
   32.81440 -116.09900
   32.83770 -116.17800
   32.88921 -116.23022
   32.93081 -116.26443
   32.97477 -116.33667
   32.94965 -116.35568
   32.98262 -116.40701
   33.01088 -116.46024
   33.04934 -116.51917
   33.12250 -116.62800
   33.17807 -116.69025
   33.20868 -116.72922
   33.24650 -116.79100
   33.27900 -116.84400
   33.33200 -116.95200
   33.34092 -117.00819
   33.37030 -117.01517
   33.39140 -117.03091
   33.42297 -117.05333
   33.49754 -117.14172
   33.52894 -117.17214
   33.55897 -117.20448
   33.61160 -117.28099
   33.68522 -117.37270
   33.70453 -117.40265
   33.71851 -117.42415
   33.73183 -117.44568
   33.74509 -117.46332
   33.81290 -117.54800
   33.82890 -117.59000
  1  1  3  Elsinore;W+GI+T+J+CM                              
 7.849 0.27038E-04 0.5000
 7.849 0.27038E-04 0.2000
 7.849 0.27038E-04 0.3000
   83.5    16.00   0.0      241.0
  37
   32.77900 -116.00600
   32.81440 -116.09900
   32.83770 -116.17800
   32.88921 -116.23022
   32.93081 -116.26443
   32.97477 -116.33667
   32.94965 -116.35568
   32.98262 -116.40701
   33.01088 -116.46024
   33.04934 -116.51917
   33.12250 -116.62800
   33.17807 -116.69025
   33.20868 -116.72922
   33.24650 -116.79100
   33.27900 -116.84400
   33.33200 -116.95200
   33.34092 -117.00819
   33.37030 -117.01517
   33.39140 -117.03091
   33.42297 -117.05333
   33.49754 -117.14172
   33.52894 -117.17214
   33.55897 -117.20448
   33.61160 -117.28099
   33.68522 -117.37270
   33.70453 -117.40265
   33.71851 -117.42415
   33.73183 -117.44568
   33.74509 -117.46332
   33.81290 -117.54800
   33.82890 -117.59000
   33.85110 -117.63600
   33.87330 -117.71700
   33.90740 -117.79200
   33.92970 -117.85200
   33.97120 -117.99200
   33.99500 -118.04800
  1  1  3  Garlock;GE                                        
 6.695 0.67237E-03 0.5000
 6.695 0.67237E-03 0.2000
 6.695 0.67237E-03 0.3000
   90.0    12.00   0.0       45.0
   5
   35.59833 -116.87894
   35.59671 -116.81796
   35.59358 -116.59081
   35.58640 -116.46697
   35.59040 -116.37972
  1  1  3  Garlock;GC                                        
 7.211 0.89730E-04 0.5000
 7.211 0.89730E-04 0.2000
 7.211 0.89730E-04 0.3000
   90.0    12.00   0.0      111.0
   6
   35.28346 -118.02395
   35.42322 -117.74931
   35.49720 -117.48687
   35.56760 -117.15792
   35.60182 -117.01067
   35.59833 -116.87894
  1  1  3  Garlock;GW                                        
 7.218 0.28091E-03 0.5000
 7.218 0.28091E-03 0.2000
 7.218 0.28091E-03 0.3000
   90.0    13.00   0.7       98.0
  11
   34.82362 -118.91833
   34.82844 -118.87123
   34.84924 -118.82281
   34.88225 -118.77081
   34.93137 -118.66699
   34.99577 -118.47466
   35.04770 -118.37540
   35.07881 -118.33260
   35.18647 -118.11913
   35.22325 -118.06134
   35.27129 -118.01031
  1  1  3  Garlock;GE+GC                                     
 7.409 0.89792E-04 0.5000
 7.409 0.89792E-04 0.2000
 7.409 0.89792E-04 0.3000
   90.0    12.00   0.0      156.0
  10
   35.59040 -116.37972
   35.58640 -116.46697
   35.59358 -116.59081
   35.59671 -116.81796
   35.59833 -116.87894
   35.60182 -117.01067
   35.56760 -117.15792
   35.49720 -117.48687
   35.42322 -117.74931
   35.28346 -118.02395
  1  1  3  Garlock;GC+GW                                     
 7.616 0.59155E-03 0.5000
 7.616 0.59155E-03 0.2000
 7.616 0.59155E-03 0.3000
   90.0    12.00   0.4      210.0
  17
   34.82362 -118.91833
   34.82844 -118.87123
   34.84924 -118.82281
   34.88225 -118.77081
   34.93137 -118.66699
   34.99577 -118.47466
   35.04770 -118.37540
   35.07881 -118.33260
   35.18647 -118.11913
   35.22325 -118.06134
   35.27129 -118.01031
   35.28346 -118.02395
   35.42322 -117.74931
   35.49720 -117.48687
   35.56760 -117.15792
   35.60182 -117.01067
   35.59833 -116.87894
  1  1  3  Garlock;GE+GC+GW                                  
 7.723 0.62053E-03 0.5000
 7.723 0.62053E-03 0.2000
 7.723 0.62053E-03 0.3000
   90.0    12.00   0.3      256.0
  21
   35.59040 -116.37972
   35.58640 -116.46697
   35.59358 -116.59081
   35.59671 -116.81796
   35.59833 -116.87894
   35.60182 -117.01067
   35.56760 -117.15792
   35.49720 -117.48687
   35.42322 -117.74931
   35.28346 -118.02395
   35.27129 -118.01031
   35.22325 -118.06134
   35.18647 -118.11913
   35.07881 -118.33260
   35.04770 -118.37540
   34.99577 -118.47466
   34.93137 -118.66699
   34.88225 -118.77081
   34.84924 -118.82281
   34.82844 -118.87123
   34.82362 -118.91833
  1  1  3  San Jacinto;SBV                                   
 6.884 0.48067E-03 0.5000
 6.884 0.24972E-02 0.2000
 6.884 0.48067E-03 0.3000
   90.0    16.00   0.0       45.0
   6
   34.29360 -117.56500
   34.18200 -117.40300
   34.19170 -117.38900
   34.15880 -117.36400
   34.10130 -117.32500
   34.01700 -117.23700
  1  1  3  San Jacinto;SJV                                   
 6.852 0.48067E-03 0.5000
 6.852 0.15135E-02 0.2000
 6.852 0.48067E-03 0.3000
   90.0    16.00   0.0       43.0
   6
   34.01700 -117.23700
   34.00670 -117.22200
   33.90453 -117.08958
   33.84928 -117.01205
   33.80536 -116.93905
   33.75567 -116.90302
  1  1  3  San Jacinto;A                                     
 7.173 0.96135E-04 0.5000
 7.173 0.96135E-04 0.2000
 7.173 0.96135E-04 0.3000
   90.0    17.00   0.0       71.0
   7
   33.89068 -117.10829
   33.77780 -116.97900
   33.76173 -116.96198
   33.73643 -116.91430
   33.69667 -116.84472
   33.51120 -116.54900
   33.48955 -116.51330
  1  1  3  San Jacinto;C                                     
 6.931 0.96135E-04 0.5000
 6.931 0.96135E-04 0.2000
 6.931 0.96135E-04 0.3000
   90.0    17.00   0.0       47.0
   7
   33.48955 -116.51330
   33.41660 -116.39300
   33.39600 -116.33900
   33.38390 -116.29700
   33.31500 -116.21000
   33.28540 -116.14700
   33.25580 -116.09900
  1  1  3  San Jacinto;CC                                    
 6.848 0.48067E-03 0.5000
 6.848 0.48067E-03 0.2000
 6.848 0.48067E-03 0.3000
   90.0    16.00   0.0       43.0
   4
   33.46880 -116.54300
   33.42040 -116.47000
   33.26360 -116.28300
   33.20660 -116.20500
  1  1  3  San Jacinto;B                                     
 6.586 0.48067E-03 0.5000
 6.586 0.48067E-03 0.2000
 6.586 0.48067E-03 0.3000
   90.0    12.00   0.7       34.0
   6
   33.20660 -116.20500
   33.18220 -116.16400
   33.14340 -116.12900
   33.09760 -116.05800
   33.02970 -116.01100
   33.00100 -115.94300
  1  1  3  San Jacinto;SM                                    
 6.493 0.43509E-02 0.5000
 6.493 0.43509E-02 0.2000
 6.493 0.43509E-02 0.3000
   90.0    12.00   0.0       26.0
   3
   33.00100 -115.94300
   32.93785 -115.80666
   32.88420 -115.69800
  1  1  3  San Jacinto;SBV+SJV                               
 7.270 0.48067E-03 0.5000
 7.270 0.77297E-03 0.2000
 7.270 0.48067E-03 0.3000
   90.0    16.00   0.0       88.0
  11
   34.29360 -117.56500
   34.18200 -117.40300
   34.19170 -117.38900
   34.15880 -117.36400
   34.10130 -117.32500
   34.01700 -117.23700
   34.00670 -117.22200
   33.90453 -117.08958
   33.84928 -117.01205
   33.80536 -116.93905
   33.75567 -116.90302
  1  1  3  San Jacinto;SJV+A                                 
 7.436 0.48067E-03 0.5000
 7.436 0.48067E-03 0.2000
 7.436 0.48067E-03 0.3000
   90.0    17.00   0.0       89.0
   7
   34.01700 -117.23700
   34.00670 -117.22200
   33.90453 -117.08958
   33.73643 -116.91430
   33.69667 -116.84472
   33.51120 -116.54900
   33.48955 -116.51330
  1  1  3  San Jacinto;A+C                                   
 7.466 0.12673E-02 0.5000
 7.466 0.23534E-02 0.2000
 7.466 0.80365E-03 0.3000
   90.0    17.00   0.0      118.0
  13
   33.89068 -117.10829
   33.77780 -116.97900
   33.76173 -116.96198
   33.73643 -116.91430
   33.69667 -116.84472
   33.51120 -116.54900
   33.48955 -116.51330
   33.41660 -116.39300
   33.39600 -116.33900
   33.38390 -116.29700
   33.31500 -116.21000
   33.28540 -116.14700
   33.25580 -116.09900
  1  1  3  San Jacinto;A+CC                                  
 7.434 0.96135E-04 0.5000
 7.434 0.96135E-04 0.2000
 7.434 0.96135E-04 0.3000
   90.0    16.00   0.0      118.0
  11
   33.20660 -116.20500
   33.26360 -116.28300
   33.42040 -116.47000
   33.46880 -116.54300
   33.48955 -116.51330
   33.51120 -116.54900
   33.69667 -116.84472
   33.73643 -116.91430
   33.76173 -116.96198
   33.77780 -116.97900
   33.89068 -117.10829
  1  1  3  San Jacinto;CC+B                                  
 7.117 0.48067E-03 0.5000
 7.117 0.48067E-03 0.2000
 7.117 0.48067E-03 0.3000
   90.0    14.00   0.2       77.0
   9
   33.46880 -116.54300
   33.42040 -116.47000
   33.26360 -116.28300
   33.20660 -116.20500
   33.18220 -116.16400
   33.14340 -116.12900
   33.09760 -116.05800
   33.02970 -116.01100
   33.00100 -115.94300
  1  1  3  San Jacinto;B+SM                                  
 6.887 0.48067E-03 0.5000
 6.887 0.48067E-03 0.2000
 6.887 0.48067E-03 0.3000
   90.0    12.00   0.4       61.0
   8
   33.20660 -116.20500
   33.18220 -116.16400
   33.14340 -116.12900
   33.09760 -116.05800
   33.02970 -116.01100
   33.00100 -115.94300
   32.93785 -115.80666
   32.88420 -115.69800
  1  1  3  San Jacinto;SBV+SJV+A                             
 7.625 0.48067E-03 0.5000
 7.625 0.48067E-03 0.2000
 7.625 0.48067E-03 0.3000
   90.0    16.00   0.0      134.0
  12
   34.29360 -117.56500
   34.18200 -117.40300
   34.19170 -117.38900
   34.15880 -117.36400
   34.10130 -117.32500
   34.01700 -117.23700
   34.00670 -117.22200
   33.90453 -117.08958
   33.73643 -116.91430
   33.69667 -116.84472
   33.51120 -116.54900
   33.48955 -116.51330
  1  1  3  San Jacinto;SJV+A+C                               
 7.638 0.48067E-03 0.5000
 7.638 0.48067E-03 0.2000
 7.638 0.48067E-03 0.3000
   90.0    17.00   0.0      136.0
  13
   34.01700 -117.23700
   34.00670 -117.22200
   33.90453 -117.08958
   33.73643 -116.91430
   33.69667 -116.84472
   33.51120 -116.54900
   33.48955 -116.51330
   33.41660 -116.39300
   33.39600 -116.33900
   33.38390 -116.29700
   33.31500 -116.21000
   33.28540 -116.14700
   33.25580 -116.09900
  1  1  3  San Jacinto;SJV+A+CC                              
 7.615 0.96135E-04 0.5000
 7.615 0.96135E-04 0.2000
 7.615 0.96135E-04 0.3000
   90.0    16.00   0.0      136.0
  11
   33.20660 -116.20500
   33.26360 -116.28300
   33.42040 -116.47000
   33.46880 -116.54300
   33.48955 -116.51330
   33.51120 -116.54900
   33.69667 -116.84472
   33.73643 -116.91430
   33.90453 -117.08958
   34.00670 -117.22200
   34.01700 -117.23700
  1  1  3  San Jacinto;A+CC+B                                
 7.547 0.96135E-04 0.5000
 7.547 0.96135E-04 0.2000
 7.547 0.96135E-04 0.3000
   90.0    15.00   0.1      152.0
  16
   33.00100 -115.94300
   33.02970 -116.01100
   33.09760 -116.05800
   33.14340 -116.12900
   33.18220 -116.16400
   33.20660 -116.20500
   33.26360 -116.28300
   33.42040 -116.47000
   33.46880 -116.54300
   33.48955 -116.51330
   33.51120 -116.54900
   33.69667 -116.84472
   33.73643 -116.91430
   33.76173 -116.96198
   33.77780 -116.97900
   33.89068 -117.10829
  1  1  3  San Jacinto;CC+B+SM                               
 7.269 0.48067E-03 0.5000
 7.269 0.48067E-03 0.2000
 7.269 0.48067E-03 0.3000
   90.0    14.00   0.2      103.0
  11
   33.46880 -116.54300
   33.42040 -116.47000
   33.26360 -116.28300
   33.20660 -116.20500
   33.18220 -116.16400
   33.14340 -116.12900
   33.09760 -116.05800
   33.02970 -116.01100
   33.00100 -115.94300
   32.93785 -115.80666
   32.88420 -115.69800
  1  1  3  San Jacinto;SBV+SJV+A+C                           
 7.777 0.48067E-03 0.5000
 7.777 0.48067E-03 0.2000
 7.777 0.48067E-03 0.3000
   90.0    17.00   0.0      181.0
  18
   34.29360 -117.56500
   34.18200 -117.40300
   34.19170 -117.38900
   34.15880 -117.36400
   34.10130 -117.32500
   34.01700 -117.23700
   34.00670 -117.22200
   33.90453 -117.08958
   33.73643 -116.91430
   33.69667 -116.84472
   33.51120 -116.54900
   33.48955 -116.51330
   33.41660 -116.39300
   33.39600 -116.33900
   33.38390 -116.29700
   33.31500 -116.21000
   33.28540 -116.14700
   33.25580 -116.09900
  1  1  3  San Jacinto;SBV+SJV+A+CC                          
 7.759 0.96135E-04 0.5000
 7.759 0.96135E-04 0.2000
 7.759 0.96135E-04 0.3000
   90.0    16.00   0.0      181.0
  16
   33.20660 -116.20500
   33.26360 -116.28300
   33.42040 -116.47000
   33.46880 -116.54300
   33.48955 -116.51330
   33.51120 -116.54900
   33.69667 -116.84472
   33.73643 -116.91430
   33.90453 -117.08958
   34.00670 -117.22200
   34.01700 -117.23700
   34.10130 -117.32500
   34.15880 -117.36400
   34.19170 -117.38900
   34.18200 -117.40300
   34.29360 -117.56500
  1  1  3  San Jacinto;SJV+A+CC+B                            
 7.700 0.96135E-04 0.5000
 7.700 0.96135E-04 0.2000
 7.700 0.96135E-04 0.3000
   90.0    15.00   0.1      170.0
  16
   33.00100 -115.94300
   33.02970 -116.01100
   33.09760 -116.05800
   33.14340 -116.12900
   33.18220 -116.16400
   33.20660 -116.20500
   33.26360 -116.28300
   33.42040 -116.47000
   33.46880 -116.54300
   33.48955 -116.51330
   33.51120 -116.54900
   33.69667 -116.84472
   33.73643 -116.91430
   33.90453 -117.08958
   34.00670 -117.22200
   34.01700 -117.23700
  1  1  3  San Jacinto;A+CC+B+SM                             
 7.624 0.96135E-04 0.5000
 7.624 0.96135E-04 0.2000
 7.624 0.96135E-04 0.3000
   90.0    15.00   0.1      178.0
  18
   32.88420 -115.69800
   32.93785 -115.80666
   33.00100 -115.94300
   33.02970 -116.01100
   33.09760 -116.05800
   33.14340 -116.12900
   33.18220 -116.16400
   33.20660 -116.20500
   33.26360 -116.28300
   33.42040 -116.47000
   33.46880 -116.54300
   33.48955 -116.51330
   33.51120 -116.54900
   33.69667 -116.84472
   33.73643 -116.91430
   33.76173 -116.96198
   33.77780 -116.97900
   33.89068 -117.10829
  1  1  3  San Jacinto;SBV+SJV+A+CC+B                        
 7.826 0.96135E-04 0.5000
 7.826 0.96135E-04 0.2000
 7.826 0.96135E-04 0.3000
   90.0    15.00   0.1      215.0
  21
   33.00100 -115.94300
   33.02970 -116.01100
   33.09760 -116.05800
   33.14340 -116.12900
   33.18220 -116.16400
   33.20660 -116.20500
   33.26360 -116.28300
   33.42040 -116.47000
   33.46880 -116.54300
   33.48955 -116.51330
   33.51120 -116.54900
   33.69667 -116.84472
   33.73643 -116.91430
   33.90453 -117.08958
   34.00670 -117.22200
   34.01700 -117.23700
   34.10130 -117.32500
   34.15880 -117.36400
   34.19170 -117.38900
   34.18200 -117.40300
   34.29360 -117.56500
  1  1  3  San Jacinto;SJV+A+CC+B+SM                         
 7.760 0.96135E-04 0.5000
 7.760 0.96135E-04 0.2000
 7.760 0.96135E-04 0.3000
   90.0    15.00   0.1      196.0
  18
   32.88420 -115.69800
   32.93785 -115.80666
   33.00100 -115.94300
   33.02970 -116.01100
   33.09760 -116.05800
   33.14340 -116.12900
   33.18220 -116.16400
   33.20660 -116.20500
   33.26360 -116.28300
   33.42040 -116.47000
   33.46880 -116.54300
   33.48955 -116.51330
   33.51120 -116.54900
   33.69667 -116.84472
   33.73643 -116.91430
   33.90453 -117.08958
   34.00670 -117.22200
   34.01700 -117.23700
  1  1  3  San Jacinto;SBV+SJV+A+CC+B+SM                     
 7.875 0.96135E-04 0.5000
 7.875 0.96135E-04 0.2000
 7.875 0.96135E-04 0.3000
   90.0    15.00   0.1      241.0
  23
   32.88420 -115.69800
   32.93785 -115.80666
   33.00100 -115.94300
   33.02970 -116.01100
   33.09760 -116.05800
   33.14340 -116.12900
   33.18220 -116.16400
   33.20660 -116.20500
   33.26360 -116.28300
   33.42040 -116.47000
   33.46880 -116.54300
   33.48955 -116.51330
   33.51120 -116.54900
   33.69667 -116.84472
   33.73643 -116.91430
   33.90453 -117.08958
   34.00670 -117.22200
   34.01700 -117.23700
   34.10130 -117.32500
   34.15880 -117.36400
   34.19170 -117.38900
   34.18200 -117.40300
   34.29360 -117.56500
  1  1  3  N. San Andreas;SAO                                
 7.293 0.10996E-02 0.5000
 7.293 0.10996E-02 0.2000
 7.293 0.10996E-02 0.3000
   90.0    11.00   0.1      136.0
   9
   39.17060 -123.84070
   39.25890 -123.87260
   39.39650 -123.92240
   39.67300 -123.99530
   39.91350 -124.00670
   40.02590 -124.04900
   40.05060 -124.06350
   40.09650 -124.13810
   40.24400 -124.40320
  1  1  3  N. San Andreas;SAN                                
 7.484 0.21676E-04 0.5000
 7.484 0.21676E-04 0.2000
 7.484 0.21676E-04 0.3000
   90.0    11.00   0.1      189.0
   7
   37.78560 -122.57410
   37.96170 -122.72245
   38.18100 -122.91700
   38.32900 -123.04190
   38.40800 -123.11440
   39.10140 -123.78940
   39.17060 -123.84070
  1  1  3  N. San Andreas;SAP                                
 7.114 0.11284E-04 0.5000
 7.114 0.11284E-04 0.2000
 7.114 0.11284E-04 0.3000
   90.0    13.00   0.1       85.0
   5
   37.17620 -122.00360
   37.29700 -122.14000
   37.36700 -122.21000
   37.43800 -122.28300
   37.78560 -122.57410
  1  1  3  N. San Andreas;SAS                                
 6.968 0.26198E-02 0.5000
 6.968 0.26198E-02 0.2000
 6.968 0.26198E-02 0.3000
   90.0    14.00   0.8       62.0
   7
   36.80590 -121.48160
   36.87010 -121.56450
   36.92600 -121.65200
   36.98900 -121.73300
   37.05300 -121.81200
   37.10400 -121.90700
   37.17620 -122.00360
  1  1  3  N. San Andreas;SAO+SAN                            
 7.798 0.32324E-02 0.5000
 7.798 0.32324E-02 0.2000
 7.798 0.32324E-02 0.3000
   90.0    11.00   0.1      325.0
  15
   40.24400 -124.40320
   40.09650 -124.13810
   40.05060 -124.06350
   40.02590 -124.04900
   39.91350 -124.00670
   39.67300 -123.99530
   39.39650 -123.92240
   39.25890 -123.87260
   39.17060 -123.84070
   39.10140 -123.78940
   38.40800 -123.11440
   38.32900 -123.04190
   38.18100 -122.91700
   37.96170 -122.72245
   37.78560 -122.57410
  1  1  3  N. San Andreas;SAN+SAP                            
 7.729 0.22567E-05 0.5000
 7.729 0.22567E-05 0.2000
 7.729 0.22567E-05 0.3000
   90.0    11.00   0.1      274.0
  11
   39.17060 -123.84070
   39.10140 -123.78940
   38.40800 -123.11440
   38.32900 -123.04190
   38.18100 -122.91700
   37.96170 -122.72245
   37.78560 -122.57410
   37.43800 -122.28300
   37.36700 -122.21000
   37.29700 -122.14000
   37.17620 -122.00360
  1  1  3  N. San Andreas;SAP+SAS                            
 7.447 0.39032E-02 0.5000
 7.447 0.39032E-02 0.2000
 7.447 0.39032E-02 0.3000
   90.0    13.00   0.4      147.0
  11
   37.78560 -122.57410
   37.43800 -122.28300
   37.36700 -122.21000
   37.29700 -122.14000
   37.17620 -122.00360
   37.10400 -121.90700
   37.05300 -121.81200
   36.98900 -121.73300
   36.92600 -121.65200
   36.87010 -121.56450
   36.80590 -121.48160
  1  1  3  N. San Andreas;SAO+SAN+SAP                        
 7.953 0.52495E-04 0.5000
 7.953 0.52495E-04 0.2000
 7.953 0.52495E-04 0.3000
   90.0    11.00   0.1      410.0
  19
   40.24400 -124.40320
   40.09650 -124.13810
   40.05060 -124.06350
   40.02590 -124.04900
   39.91350 -124.00670
   39.67300 -123.99530
   39.39650 -123.92240
   39.25890 -123.87260
   39.17060 -123.84070
   39.10140 -123.78940
   38.40800 -123.11440
   38.32900 -123.04190
   38.18100 -122.91700
   37.96170 -122.72245
   37.78560 -122.57410
   37.43800 -122.28300
   37.36700 -122.21000
   37.29700 -122.14000
   37.17620 -122.00360
  1  1  3  N. San Andreas;SAN+SAP+SAS                        
 7.867 0.24821E-04 0.5000
 7.867 0.24821E-04 0.2000
 7.867 0.24821E-04 0.3000
   90.0    12.00   0.2      336.0
  17
   39.17060 -123.84070
   39.10140 -123.78940
   38.40800 -123.11440
   38.32900 -123.04190
   38.18100 -122.91700
   37.96170 -122.72245
   37.78560 -122.57410
   37.43800 -122.28300
   37.36700 -122.21000
   37.29700 -122.14000
   37.17620 -122.00360
   37.10400 -121.90700
   37.05300 -121.81200
   36.98900 -121.73300
   36.92600 -121.65200
   36.87010 -121.56450
   36.80590 -121.48160
  1  1  3  N. San Andreas;SAO+SAN+SAP+SAS                    
 8.050 0.33117E-03 0.5000
 8.050 0.33117E-03 0.2000
 8.050 0.33117E-03 0.3000
   90.0    12.00   0.2      472.0
  25
   40.24400 -124.40320
   40.09650 -124.13810
   40.05060 -124.06350
   40.02590 -124.04900
   39.91350 -124.00670
   39.67300 -123.99530
   39.39650 -123.92240
   39.25890 -123.87260
   39.17060 -123.84070
   39.10140 -123.78940
   38.40800 -123.11440
   38.32900 -123.04190
   38.18100 -122.91700
   37.96170 -122.72245
   37.78560 -122.57410
   37.43800 -122.28300
   37.36700 -122.21000
   37.29700 -122.14000
   37.17620 -122.00360
   37.10400 -121.90700
   37.05300 -121.81200
   36.98900 -121.73300
   36.92600 -121.65200
   36.87010 -121.56450
   36.80590 -121.48160
  1  1  3  S. San Andreas;PK                                 
 5.872 0.57344E-01 0.5000
 5.872 0.57391E-01 0.2000
 5.872 0.56471E-01 0.3000
   90.0     2.00   4.0       36.0
   2
   35.75198 -120.30005
   36.00265 -120.56089
  1  1  3  S. San Andreas;CH                                 
 6.904 0.59008E-04 0.5000
 6.904 0.58994E-04 0.2000
 6.904 0.59061E-04 0.3000
   90.0    12.00   0.0       63.0
   4
   35.31417 -119.86595
   35.41391 -119.97030
   35.53331 -120.08675
   35.75198 -120.30005
  1  1  3  S. San Andreas;CC                                 
 7.003 0.62043E-04 0.5000
 7.003 0.63295E-04 0.2000
 7.003 0.59361E-04 0.3000
   90.0    15.00   0.0       59.0
   5
   35.31420 -119.86590
   35.16070 -119.70680
   35.04750 -119.55830
   34.98780 -119.47110
   34.94410 -119.40290
  1  1  3  S. San Andreas;BB                                 
 6.904 0.56876E-03 0.5000
 6.904 0.58013E-03 0.2000
 6.904 0.55424E-03 0.3000
   90.0    15.00   0.0       50.0
   5
   34.94406 -119.40286
   34.91571 -119.36286
   34.86390 -119.21000
   34.82896 -119.03009
   34.80760 -118.89012
  1  1  3  S. San Andreas;NM                                 
 6.731 0.15445E-03 0.5000
 6.731 0.14169E-03 0.2000
 6.731 0.17231E-03 0.3000
   90.0    15.00   0.0       37.0
   4
   34.80760 -118.89012
   34.80722 -118.88764
   34.77325 -118.76731
   34.69849 -118.50895
  1  1  3  S. San Andreas;SM                                 
 7.212 0.73088E-03 0.5000
 7.212 0.92899E-03 0.2000
 7.212 0.40004E-03 0.3000
   90.0    13.00   0.0       98.0
   4
   34.69849 -118.50895
   34.54785 -118.10394
   34.40293 -117.75358
   34.31630 -117.54900
  1  1  3  S. San Andreas;NSB                                
 6.635 0.70955E-03 0.5000
 6.635 0.68330E-03 0.2000
 6.635 0.11588E-02 0.3000
   90.0    13.00   0.0       35.0
   5
   34.31630 -117.54900
   34.27090 -117.45100
   34.23284 -117.38869
   34.17314 -117.27416
   34.15003 -117.22202
  1  1  3  S. San Andreas;SSB                                
 6.730 0.55347E-04 0.5000
 6.730 0.54470E-04 0.2000
 6.730 0.53113E-04 0.3000
   90.0    13.00   0.0       43.0
   6
   34.15003 -117.22202
   34.09280 -117.06767
   34.07377 -117.01390
   34.03384 -116.90235
   34.01135 -116.87354
   33.95911 -116.81979
  1  1  3  S. San Andreas;BG                                 
 6.971 0.14713E-04 0.5000
 6.971 0.47491E-04 0.2000
 6.971 0.67688E-04 0.3000
   58.0    15.00   0.0       56.0
   9
   33.78825 -116.24629
   33.84852 -116.38300
   33.84812 -116.42653
   33.88466 -116.51689
   33.90702 -116.58485
   33.91757 -116.62387
   33.94416 -116.68581
   33.93741 -116.77859
   33.95316 -116.80139
  1  1  3  S. San Andreas;CO                                 
 6.858 0.12892E-01 0.5000
 6.858 0.11712E-01 0.2000
 6.858 0.15296E-01 0.3000
   90.0    10.00   0.6       69.0
   2
   33.78825 -116.24629
   33.35009 -115.71192
  1  1  3  S. San Andreas;PK+CH                              
 6.961 0.76663E-02 0.5000
 6.961 0.76507E-02 0.2000
 6.961 0.77254E-02 0.3000
   90.0     8.00   0.4       99.0
   5
   36.00265 -120.56089
   35.75198 -120.30005
   35.53331 -120.08675
   35.41391 -119.97030
   35.31417 -119.86595
  1  1  3  S. San Andreas;CH+CC                              
 7.357 0.22907E-03 0.5000
 7.357 0.23033E-03 0.2000
 7.357 0.22832E-03 0.3000
   90.0    14.00   0.0      122.0
   8
   35.75198 -120.30005
   35.53331 -120.08675
   35.41391 -119.97030
   35.31417 -119.86595
   35.16070 -119.70680
   35.04750 -119.55830
   34.98780 -119.47110
   34.94410 -119.40290
  1  1  3  S. San Andreas;CC+BB                              
 7.357 0.54076E-05 0.5000
 7.357 0.54076E-05 0.2000
 7.357 0.54076E-05 0.3000
   90.0    15.00   0.0      109.0
   9
   35.31420 -119.86590
   35.16070 -119.70680
   35.04750 -119.55830
   34.98780 -119.47110
   34.94410 -119.40290
   34.91571 -119.36286
   34.86390 -119.21000
   34.82896 -119.03009
   34.80760 -118.89012
  1  1  3  S. San Andreas;BB+NM                              
 7.225 0.10815E-05 0.5000
 7.225 0.10815E-05 0.2000
 7.225 0.10815E-05 0.3000
   90.0    15.00   0.0       87.0
   8
   34.94406 -119.40286
   34.91571 -119.36286
   34.86390 -119.21000
   34.82896 -119.03009
   34.80760 -118.89012
   34.80722 -118.88764
   34.77325 -118.76731
   34.69849 -118.50895
  1  1  3  S. San Andreas;NM+SM                              
 7.422 0.54076E-05 0.5000
 7.422 0.54076E-05 0.2000
 7.422 0.54076E-05 0.3000
   90.0    14.00   0.0      134.0
   7
   34.31630 -117.54900
   34.40293 -117.75358
   34.54785 -118.10394
   34.69849 -118.50895
   34.77325 -118.76731
   34.80722 -118.88764
   34.80760 -118.89012
  1  1  3  S. San Andreas;SM+NSB                             
 7.388 0.96607E-03 0.5000
 7.388 0.13402E-02 0.2000
 7.388 0.11019E-02 0.3000
   90.0    13.00   0.0      133.0
   8
   34.69849 -118.50895
   34.54785 -118.10394
   34.40293 -117.75358
   34.31630 -117.54900
   34.27090 -117.45100
   34.23284 -117.38869
   34.17314 -117.27416
   34.15003 -117.22202
  1  1  3  S. San Andreas;NSB+SSB                            
 7.074 0.13327E-02 0.5000
 7.074 0.85343E-03 0.2000
 7.074 0.14820E-02 0.3000
   90.0    13.00   0.0       79.0
  10
   34.31630 -117.54900
   34.27090 -117.45100
   34.23284 -117.38869
   34.17314 -117.27416
   34.15003 -117.22202
   34.09280 -117.06767
   34.07377 -117.01390
   34.03384 -116.90235
   34.01135 -116.87354
   33.95911 -116.81979
  1  1  3  S. San Andreas;SSB+BG                             
 7.264 0.54076E-05 0.5000
 7.264 0.54076E-05 0.2000
 7.264 0.54076E-05 0.3000
   70.7    14.00   0.0      101.0
  15
   33.78825 -116.24629
   33.84852 -116.38300
   33.84812 -116.42653
   33.88466 -116.51689
   33.90702 -116.58485
   33.91757 -116.62387
   33.94416 -116.68581
   33.93741 -116.77859
   33.95316 -116.80139
   33.95911 -116.81979
   34.01135 -116.87354
   34.03384 -116.90235
   34.07377 -117.01390
   34.09280 -117.06767
   34.15003 -117.22202
  1  1  3  S. San Andreas;BG+CO                              
 7.319 0.44042E-03 0.5000
 7.319 0.37131E-03 0.2000
 7.319 0.10308E-02 0.3000
   72.4    12.00   0.3      125.0
  10
   33.35009 -115.71192
   33.78825 -116.24629
   33.84852 -116.38300
   33.84812 -116.42653
   33.88466 -116.51689
   33.90702 -116.58485
   33.91757 -116.62387
   33.94416 -116.68581
   33.93741 -116.77859
   33.95316 -116.80139
  1  1  3  S. San Andreas;PK+CH+CC                           
 7.384 0.45586E-03 0.5000
 7.384 0.46244E-03 0.2000
 7.384 0.45265E-03 0.3000
   90.0    11.00   0.2      158.0
   9
   36.00265 -120.56089
   35.75198 -120.30005
   35.53331 -120.08675
   35.41391 -119.97030
   35.31417 -119.86595
   35.16070 -119.70680
   35.04750 -119.55830
   34.98780 -119.47110
   34.94410 -119.40290
  1  1  3  S. San Andreas;CH+CC+BB                           
 7.575 0.10815E-05 0.5000
 7.575 0.10815E-05 0.2000
 7.575 0.10815E-05 0.3000
   90.0    14.00   0.0      171.0
  12
   35.75198 -120.30005
   35.53331 -120.08675
   35.41391 -119.97030
   35.31417 -119.86595
   35.16070 -119.70680
   35.04750 -119.55830
   34.98780 -119.47110
   34.94410 -119.40290
   34.91571 -119.36286
   34.86390 -119.21000
   34.82896 -119.03009
   34.80760 -118.89012
  1  1  3  S. San Andreas;CC+BB+NM                           
 7.526 0.10815E-05 0.5000
 7.526 0.10815E-05 0.2000
 7.526 0.10815E-05 0.3000
   90.0    15.00   0.0      146.0
  12
   34.69849 -118.50895
   34.77325 -118.76731
   34.80722 -118.88764
   34.80760 -118.89012
   34.82896 -119.03009
   34.86390 -119.21000
   34.91571 -119.36286
   34.94410 -119.40290
   34.98780 -119.47110
   35.04750 -119.55830
   35.16070 -119.70680
   35.31420 -119.86590
  1  1  3  S. San Andreas;BB+NM+SM                           
 7.620 0.28692E-03 0.5000
 7.620 0.28909E-03 0.2000
 7.620 0.26047E-03 0.3000
   90.0    14.00   0.0      184.0
  11
   34.94406 -119.40286
   34.91571 -119.36286
   34.86390 -119.21000
   34.82896 -119.03009
   34.80760 -118.89012
   34.80722 -118.88764
   34.77325 -118.76731
   34.69849 -118.50895
   34.54785 -118.10394
   34.40293 -117.75358
   34.31630 -117.54900
  1  1  3  S. San Andreas;NM+SM+NSB                          
 7.549 0.71776E-04 0.5000
 7.549 0.77217E-04 0.2000
 7.549 0.83864E-04 0.3000
   90.0    13.00   0.0      170.0
  11
   34.15003 -117.22202
   34.17314 -117.27416
   34.23284 -117.38869
   34.27090 -117.45100
   34.31630 -117.54900
   34.40293 -117.75358
   34.54785 -118.10394
   34.69849 -118.50895
   34.77325 -118.76731
   34.80722 -118.88764
   34.80760 -118.89012
  1  1  3  S. San Andreas;SM+NSB+SSB                         
 7.549 0.80960E-03 0.5000
 7.549 0.83916E-03 0.2000
 7.549 0.82189E-03 0.3000
   90.0    13.00   0.0      176.0
  13
   34.69849 -118.50895
   34.54785 -118.10394
   34.40293 -117.75358
   34.31630 -117.54900
   34.27090 -117.45100
   34.23284 -117.38869
   34.17314 -117.27416
   34.15003 -117.22202
   34.09280 -117.06767
   34.07377 -117.01390
   34.03384 -116.90235
   34.01135 -116.87354
   33.95911 -116.81979
  1  1  3  S. San Andreas;NSB+SSB+BG                         
 7.426 0.32669E-04 0.5000
 7.426 0.54076E-05 0.2000
 7.426 0.54076E-05 0.3000
   75.4    14.00   0.0      136.0
  19
   33.78825 -116.24629
   33.84852 -116.38300
   33.84812 -116.42653
   33.88466 -116.51689
   33.90702 -116.58485
   33.91757 -116.62387
   33.94416 -116.68581
   33.93741 -116.77859
   33.95316 -116.80139
   33.95911 -116.81979
   34.01135 -116.87354
   34.03384 -116.90235
   34.07377 -117.01390
   34.09280 -117.06767
   34.15003 -117.22202
   34.17314 -117.27416
   34.23284 -117.38869
   34.27090 -117.45100
   34.31630 -117.54900
  1  1  3  S. San Andreas;SSB+BG+CO                          
 7.497 0.26853E-03 0.5000
 7.497 0.86737E-04 0.2000
 7.497 0.86543E-04 0.3000
   77.1    12.00   0.2      170.0
  16
   33.35009 -115.71192
   33.78825 -116.24629
   33.84852 -116.38300
   33.84812 -116.42653
   33.88466 -116.51689
   33.90702 -116.58485
   33.91757 -116.62387
   33.94416 -116.68581
   33.93741 -116.77859
   33.95316 -116.80139
   33.95911 -116.81979
   34.01135 -116.87354
   34.03384 -116.90235
   34.07377 -117.01390
   34.09280 -117.06767
   34.15003 -117.22202
  1  1  3  S. San Andreas;PK+CH+CC+BB                        
 7.594 0.90383E-03 0.5000
 7.594 0.96131E-03 0.2000
 7.594 0.83039E-03 0.3000
   90.0    12.00   0.1      208.0
  13
   36.00265 -120.56089
   35.75198 -120.30005
   35.53331 -120.08675
   35.41391 -119.97030
   35.31417 -119.86595
   35.16070 -119.70680
   35.04750 -119.55830
   34.98780 -119.47110
   34.94410 -119.40290
   34.91571 -119.36286
   34.86390 -119.21000
   34.82896 -119.03009
   34.80760 -118.89012
  1  1  3  S. San Andreas;CH+CC+BB+NM                        
 7.696 0.10815E-05 0.5000
 7.696 0.10815E-05 0.2000
 7.696 0.10815E-05 0.3000
   90.0    14.00   0.0      208.0
  15
   35.75198 -120.30005
   35.53331 -120.08675
   35.41391 -119.97030
   35.31417 -119.86595
   35.16070 -119.70680
   35.04750 -119.55830
   34.98780 -119.47110
   34.94410 -119.40290
   34.91571 -119.36286
   34.86390 -119.21000
   34.82896 -119.03009
   34.80760 -118.89012
   34.80722 -118.88764
   34.77325 -118.76731
   34.69849 -118.50895
  1  1  3  S. San Andreas;CC+BB+NM+SM                        
 7.792 0.54076E-05 0.5000
 7.792 0.54076E-05 0.2000
 7.792 0.54076E-05 0.3000
   90.0    14.00   0.0      243.0
  15
   35.31420 -119.86590
   35.16070 -119.70680
   35.04750 -119.55830
   34.98780 -119.47110
   34.94410 -119.40290
   34.91571 -119.36286
   34.86390 -119.21000
   34.82896 -119.03009
   34.80760 -118.89012
   34.80722 -118.88764
   34.77325 -118.76731
   34.69849 -118.50895
   34.54785 -118.10394
   34.40293 -117.75358
   34.31630 -117.54900
  1  1  3  S. San Andreas;BB+NM+SM+NSB                       
 7.714 0.10815E-05 0.5000
 7.714 0.10815E-05 0.2000
 7.714 0.10815E-05 0.3000
   90.0    14.00   0.0      220.0
  15
   34.94406 -119.40286
   34.91571 -119.36286
   34.86390 -119.21000
   34.82896 -119.03009
   34.80760 -118.89012
   34.80722 -118.88764
   34.77325 -118.76731
   34.69849 -118.50895
   34.54785 -118.10394
   34.40293 -117.75358
   34.31630 -117.54900
   34.27090 -117.45100
   34.23284 -117.38869
   34.17314 -117.27416
   34.15003 -117.22202
  1  1  3  S. San Andreas;NM+SM+NSB+SSB                      
 7.675 0.11138E-03 0.5000
 7.675 0.93380E-04 0.2000
 7.675 0.15512E-03 0.3000
   90.0    13.00   0.0      213.0
  16
   34.80760 -118.89012
   34.80722 -118.88764
   34.77325 -118.76731
   34.69849 -118.50895
   34.54785 -118.10394
   34.40293 -117.75358
   34.31630 -117.54900
   34.27090 -117.45100
   34.23284 -117.38869
   34.17314 -117.27416
   34.15003 -117.22202
   34.09280 -117.06767
   34.07377 -117.01390
   34.03384 -116.90235
   34.01135 -116.87354
   33.95911 -116.81979
  1  1  3  S. San Andreas;SM+NSB+SSB+BG                      
 7.731 0.21094E-03 0.5000
 7.731 0.15249E-03 0.2000
 7.731 0.11124E-03 0.3000
   81.4    13.00   0.0      234.0
  22
   33.78825 -116.24629
   33.84852 -116.38300
   33.84812 -116.42653
   33.88466 -116.51689
   33.90702 -116.58485
   33.91757 -116.62387
   33.94416 -116.68581
   33.93741 -116.77859
   33.95316 -116.80139
   33.95911 -116.81979
   34.01135 -116.87354
   34.03384 -116.90235
   34.07377 -117.01390
   34.09280 -117.06767
   34.15003 -117.22202
   34.17314 -117.27416
   34.23284 -117.38869
   34.27090 -117.45100
   34.31630 -117.54900
   34.40293 -117.75358
   34.54785 -118.10394
   34.69849 -118.50895
  1  1  3  S. San Andreas;NSB+SSB+BG+CO                      
 7.611 0.23429E-03 0.5000
 7.611 0.54076E-05 0.2000
 7.611 0.29605E-03 0.3000
   79.4    12.00   0.2      206.0
  20
   33.35009 -115.71192
   33.78825 -116.24629
   33.84852 -116.38300
   33.84812 -116.42653
   33.88466 -116.51689
   33.90702 -116.58485
   33.91757 -116.62387
   33.94416 -116.68581
   33.93741 -116.77859
   33.95316 -116.80139
   33.95911 -116.81979
   34.01135 -116.87354
   34.03384 -116.90235
   34.07377 -117.01390
   34.09280 -117.06767
   34.15003 -117.22202
   34.17314 -117.27416
   34.23284 -117.38869
   34.27090 -117.45100
   34.31630 -117.54900
  1  1  3  S. San Andreas;PK+CH+CC+BB+NM                     
 7.711 0.17876E-02 0.5000
 7.711 0.15886E-02 0.2000
 7.711 0.21021E-02 0.3000
   90.0    12.00   0.1      245.0
  16
   36.00265 -120.56089
   35.75198 -120.30005
   35.53331 -120.08675
   35.41391 -119.97030
   35.31417 -119.86595
   35.16070 -119.70680
   35.04750 -119.55830
   34.98780 -119.47110
   34.94410 -119.40290
   34.91571 -119.36286
   34.86390 -119.21000
   34.82896 -119.03009
   34.80760 -118.89012
   34.80722 -118.88764
   34.77325 -118.76731
   34.69849 -118.50895
  1  1  3  S. San Andreas;CH+CC+BB+NM+SM                     
 7.905 0.28863E-03 0.5000
 7.905 0.29406E-03 0.2000
 7.905 0.17027E-03 0.3000
   90.0    14.00   0.0      306.0
  18
   35.75198 -120.30005
   35.53331 -120.08675
   35.41391 -119.97030
   35.31417 -119.86595
   35.16070 -119.70680
   35.04750 -119.55830
   34.98780 -119.47110
   34.94410 -119.40290
   34.91571 -119.36286
   34.86390 -119.21000
   34.82896 -119.03009
   34.80760 -118.89012
   34.80722 -118.88764
   34.77325 -118.76731
   34.69849 -118.50895
   34.54785 -118.10394
   34.40293 -117.75358
   34.31630 -117.54900
  1  1  3  S. San Andreas;CC+BB+NM+SM+NSB                    
 7.862 0.60724E-04 0.5000
 7.862 0.64557E-04 0.2000
 7.862 0.78754E-04 0.3000
   90.0    14.00   0.0      279.0
  19
   35.31420 -119.86590
   35.16070 -119.70680
   35.04750 -119.55830
   34.98780 -119.47110
   34.94410 -119.40290
   34.91571 -119.36286
   34.86390 -119.21000
   34.82896 -119.03009
   34.80760 -118.89012
   34.80722 -118.88764
   34.77325 -118.76731
   34.69849 -118.50895
   34.54785 -118.10394
   34.40293 -117.75358
   34.31630 -117.54900
   34.27090 -117.45100
   34.23284 -117.38869
   34.17314 -117.27416
   34.15003 -117.22202
  1  1  3  S. San Andreas;BB+NM+SM+NSB+SSB                   
 7.811 0.58421E-04 0.5000
 7.811 0.56537E-04 0.2000
 7.811 0.62803E-04 0.3000
   90.0    14.00   0.0      263.0
  20
   34.94406 -119.40286
   34.91571 -119.36286
   34.86390 -119.21000
   34.82896 -119.03009
   34.80760 -118.89012
   34.80722 -118.88764
   34.77325 -118.76731
   34.69849 -118.50895
   34.54785 -118.10394
   34.40293 -117.75358
   34.31630 -117.54900
   34.27090 -117.45100
   34.23284 -117.38869
   34.17314 -117.27416
   34.15003 -117.22202
   34.09280 -117.06767
   34.07377 -117.01390
   34.03384 -116.90235
   34.01135 -116.87354
   33.95911 -116.81979
  1  1  3  S. San Andreas;NM+SM+NSB+SSB+BG                   
 7.825 0.35291E-04 0.5000
 7.825 0.20215E-04 0.2000
 7.825 0.35119E-04 0.3000
   82.7    14.00   0.0      271.0
  25
   33.78825 -116.24629
   33.84852 -116.38300
   33.84812 -116.42653
   33.88466 -116.51689
   33.90702 -116.58485
   33.91757 -116.62387
   33.94416 -116.68581
   33.93741 -116.77859
   33.95316 -116.80139
   33.95911 -116.81979
   34.01135 -116.87354
   34.03384 -116.90235
   34.07377 -117.01390
   34.09280 -117.06767
   34.15003 -117.22202
   34.17314 -117.27416
   34.23284 -117.38869
   34.27090 -117.45100
   34.31630 -117.54900
   34.40293 -117.75358
   34.54785 -118.10394
   34.69849 -118.50895
   34.77325 -118.76731
   34.80722 -118.88764
   34.80760 -118.89012
  1  1  3  S. San Andreas;SM+NSB+SSB+BG+CO                   
 7.847 0.44721E-03 0.5000
 7.847 0.20692E-03 0.2000
 7.847 0.43063E-03 0.3000
   82.9    13.00   0.1      303.0
  23
   33.35009 -115.71192
   33.78825 -116.24629
   33.84852 -116.38300
   33.84812 -116.42653
   33.88466 -116.51689
   33.90702 -116.58485
   33.91757 -116.62387
   33.94416 -116.68581
   33.93741 -116.77859
   33.95316 -116.80139
   33.95911 -116.81979
   34.01135 -116.87354
   34.03384 -116.90235
   34.07377 -117.01390
   34.09280 -117.06767
   34.15003 -117.22202
   34.17314 -117.27416
   34.23284 -117.38869
   34.27090 -117.45100
   34.31630 -117.54900
   34.40293 -117.75358
   34.54785 -118.10394
   34.69849 -118.50895
  1  1  3  S. San Andreas;PK+CH+CC+BB+NM+SM                  
 7.915 0.69225E-03 0.5000
 7.915 0.76818E-03 0.2000
 7.915 0.54076E-05 0.3000
   90.0    13.00   0.1      342.0
  19
   36.00265 -120.56089
   35.75198 -120.30005
   35.53331 -120.08675
   35.41391 -119.97030
   35.31417 -119.86595
   35.16070 -119.70680
   35.04750 -119.55830
   34.98780 -119.47110
   34.94410 -119.40290
   34.91571 -119.36286
   34.86390 -119.21000
   34.82896 -119.03009
   34.80760 -118.89012
   34.80722 -118.88764
   34.77325 -118.76731
   34.69849 -118.50895
   34.54785 -118.10394
   34.40293 -117.75358
   34.31630 -117.54900
  1  1  3  S. San Andreas;CH+CC+BB+NM+SM+NSB                 
 7.964 0.10815E-05 0.5000
 7.964 0.10815E-05 0.2000
 7.964 0.10815E-05 0.3000
   90.0    14.00   0.0      341.0
  22
   35.75198 -120.30005
   35.53331 -120.08675
   35.41391 -119.97030
   35.31417 -119.86595
   35.16070 -119.70680
   35.04750 -119.55830
   34.98780 -119.47110
   34.94410 -119.40290
   34.91571 -119.36286
   34.86390 -119.21000
   34.82896 -119.03009
   34.80760 -118.89012
   34.80722 -118.88764
   34.77325 -118.76731
   34.69849 -118.50895
   34.54785 -118.10394
   34.40293 -117.75358
   34.31630 -117.54900
   34.27090 -117.45100
   34.23284 -117.38869
   34.17314 -117.27416
   34.15003 -117.22202
  1  1  3  S. San Andreas;CC+BB+NM+SM+NSB+SSB                
 7.939 0.72116E-04 0.5000
 7.939 0.64290E-04 0.2000
 7.939 0.92529E-04 0.3000
   90.0    14.00   0.0      322.0
  24
   33.95911 -116.81979
   34.01135 -116.87354
   34.03384 -116.90235
   34.07377 -117.01390
   34.09280 -117.06767
   34.15003 -117.22202
   34.17314 -117.27416
   34.23284 -117.38869
   34.27090 -117.45100
   34.31630 -117.54900
   34.40293 -117.75358
   34.54785 -118.10394
   34.69849 -118.50895
   34.77325 -118.76731
   34.80722 -118.88764
   34.80760 -118.89012
   34.82896 -119.03009
   34.86390 -119.21000
   34.91571 -119.36286
   34.94410 -119.40290
   34.98780 -119.47110
   35.04750 -119.55830
   35.16070 -119.70680
   35.31420 -119.86590
  1  1  3  S. San Andreas;BB+NM+SM+NSB+SSB+BG                
 7.933 0.10815E-05 0.5000
 7.933 0.10815E-05 0.2000
 7.933 0.10815E-05 0.3000
   83.9    14.00   0.0      321.0
  29
   33.78825 -116.24629
   33.84852 -116.38300
   33.84812 -116.42653
   33.88466 -116.51689
   33.90702 -116.58485
   33.91757 -116.62387
   33.94416 -116.68581
   33.93741 -116.77859
   33.95316 -116.80139
   33.95911 -116.81979
   34.01135 -116.87354
   34.03384 -116.90235
   34.07377 -117.01390
   34.09280 -117.06767
   34.15003 -117.22202
   34.17314 -117.27416
   34.23284 -117.38869
   34.27090 -117.45100
   34.31630 -117.54900
   34.40293 -117.75358
   34.54785 -118.10394
   34.69849 -118.50895
   34.77325 -118.76731
   34.80722 -118.88764
   34.80760 -118.89012
   34.82896 -119.03009
   34.86390 -119.21000
   34.91571 -119.36286
   34.94406 -119.40286
  1  1  3  S. San Andreas;NM+SM+NSB+SSB+BG+CO                
 7.925 0.41833E-04 0.5000
 7.925 0.16476E-04 0.2000
 7.925 0.53758E-04 0.3000
   83.8    13.00   0.1      340.0
  26
   33.35009 -115.71192
   33.78825 -116.24629
   33.84852 -116.38300
   33.84812 -116.42653
   33.88466 -116.51689
   33.90702 -116.58485
   33.91757 -116.62387
   33.94416 -116.68581
   33.93741 -116.77859
   33.95316 -116.80139
   33.95911 -116.81979
   34.01135 -116.87354
   34.03384 -116.90235
   34.07377 -117.01390
   34.09280 -117.06767
   34.15003 -117.22202
   34.17314 -117.27416
   34.23284 -117.38869
   34.27090 -117.45100
   34.31630 -117.54900
   34.40293 -117.75358
   34.54785 -118.10394
   34.69849 -118.50895
   34.77325 -118.76731
   34.80722 -118.88764
   34.80760 -118.89012
  1  1  3  S. San Andreas;PK+CH+CC+BB+NM+SM+NSB              
 7.973 0.38093E-03 0.5000
 7.973 0.48055E-03 0.2000
 7.973 0.86338E-03 0.3000
   90.0    13.00   0.1      377.0
  23
   36.00265 -120.56089
   35.75198 -120.30005
   35.53331 -120.08675
   35.41391 -119.97030
   35.31417 -119.86595
   35.16070 -119.70680
   35.04750 -119.55830
   34.98780 -119.47110
   34.94410 -119.40290
   34.91571 -119.36286
   34.86390 -119.21000
   34.82896 -119.03009
   34.80760 -118.89012
   34.80722 -118.88764
   34.77325 -118.76731
   34.69849 -118.50895
   34.54785 -118.10394
   34.40293 -117.75358
   34.31630 -117.54900
   34.27090 -117.45100
   34.23284 -117.38869
   34.17314 -117.27416
   34.15003 -117.22202
  1  1  3  S. San Andreas;CH+CC+BB+NM+SM+NSB+SSB             
 8.029 0.54498E-04 0.5000
 8.029 0.52411E-04 0.2000
 8.029 0.60434E-04 0.3000
   90.0    14.00   0.0      384.0
  27
   33.95911 -116.81979
   34.01135 -116.87354
   34.03384 -116.90235
   34.07377 -117.01390
   34.09280 -117.06767
   34.15003 -117.22202
   34.17314 -117.27416
   34.23284 -117.38869
   34.27090 -117.45100
   34.31630 -117.54900
   34.40293 -117.75358
   34.54785 -118.10394
   34.69849 -118.50895
   34.77325 -118.76731
   34.80722 -118.88764
   34.80760 -118.89012
   34.82896 -119.03009
   34.86390 -119.21000
   34.91571 -119.36286
   34.94410 -119.40290
   34.98780 -119.47110
   35.04750 -119.55830
   35.16070 -119.70680
   35.31417 -119.86595
   35.41391 -119.97030
   35.53331 -120.08675
   35.75198 -120.30005
  1  1  3  S. San Andreas;CC+BB+NM+SM+NSB+SSB+BG             
 8.039 0.31943E-04 0.5000
 8.039 0.26593E-04 0.2000
 8.039 0.33522E-04 0.3000
   84.9    14.00   0.0      380.0
  33
   33.78825 -116.24629
   33.84852 -116.38300
   33.84812 -116.42653
   33.88466 -116.51689
   33.90702 -116.58485
   33.91757 -116.62387
   33.94416 -116.68581
   33.93741 -116.77859
   33.95316 -116.80139
   33.95911 -116.81979
   34.01135 -116.87354
   34.03384 -116.90235
   34.07377 -117.01390
   34.09280 -117.06767
   34.15003 -117.22202
   34.17314 -117.27416
   34.23284 -117.38869
   34.27090 -117.45100
   34.31630 -117.54900
   34.40293 -117.75358
   34.54785 -118.10394
   34.69849 -118.50895
   34.77325 -118.76731
   34.80722 -118.88764
   34.80760 -118.89012
   34.82896 -119.03009
   34.86390 -119.21000
   34.91571 -119.36286
   34.94410 -119.40290
   34.98780 -119.47110
   35.04750 -119.55830
   35.16070 -119.70680
   35.31420 -119.86590
  1  1  3  S. San Andreas;BB+NM+SM+NSB+SSB+BG+CO             
 8.017 0.50597E-04 0.5000
 8.017 0.42922E-04 0.2000
 8.017 0.55149E-04 0.3000
   84.7    13.00   0.1      390.0
  30
   33.35009 -115.71192
   33.78825 -116.24629
   33.84852 -116.38300
   33.84812 -116.42653
   33.88466 -116.51689
   33.90702 -116.58485
   33.91757 -116.62387
   33.94416 -116.68581
   33.93741 -116.77859
   33.95316 -116.80139
   33.95911 -116.81979
   34.01135 -116.87354
   34.03384 -116.90235
   34.07377 -117.01390
   34.09280 -117.06767
   34.15003 -117.22202
   34.17314 -117.27416
   34.23284 -117.38869
   34.27090 -117.45100
   34.31630 -117.54900
   34.40293 -117.75358
   34.54785 -118.10394
   34.69849 -118.50895
   34.77325 -118.76731
   34.80722 -118.88764
   34.80760 -118.89012
   34.82896 -119.03009
   34.86390 -119.21000
   34.91571 -119.36286
   34.94406 -119.40286
  1  1  3  S. San Andreas;PK+CH+CC+BB+NM+SM+NSB+SSB          
 8.037 0.11662E-03 0.5000
 8.037 0.10824E-03 0.2000
 8.037 0.14071E-03 0.3000
   90.0    13.00   0.1      421.0
  28
   33.95911 -116.81979
   34.01135 -116.87354
   34.03384 -116.90235
   34.07377 -117.01390
   34.09280 -117.06767
   34.15003 -117.22202
   34.17314 -117.27416
   34.23284 -117.38869
   34.27090 -117.45100
   34.31630 -117.54900
   34.40293 -117.75358
   34.54785 -118.10394
   34.69849 -118.50895
   34.77325 -118.76731
   34.80722 -118.88764
   34.80760 -118.89012
   34.82896 -119.03009
   34.86390 -119.21000
   34.91571 -119.36286
   34.94410 -119.40290
   34.98780 -119.47110
   35.04750 -119.55830
   35.16070 -119.70680
   35.31417 -119.86595
   35.41391 -119.97030
   35.53331 -120.08675
   35.75198 -120.30005
   36.00265 -120.56089
  1  1  3  S. San Andreas;CH+CC+BB+NM+SM+NSB+SSB+BG          
 8.115 0.10815E-05 0.5000
 8.115 0.10815E-05 0.2000
 8.115 0.10815E-05 0.3000
   85.6    14.00   0.0      442.0
  36
   33.78825 -116.24629
   33.84852 -116.38300
   33.84812 -116.42653
   33.88466 -116.51689
   33.90702 -116.58485
   33.91757 -116.62387
   33.94416 -116.68581
   33.93741 -116.77859
   33.95316 -116.80139
   33.95911 -116.81979
   34.01135 -116.87354
   34.03384 -116.90235
   34.07377 -117.01390
   34.09280 -117.06767
   34.15003 -117.22202
   34.17314 -117.27416
   34.23284 -117.38869
   34.27090 -117.45100
   34.31630 -117.54900
   34.40293 -117.75358
   34.54785 -118.10394
   34.69849 -118.50895
   34.77325 -118.76731
   34.80722 -118.88764
   34.80760 -118.89012
   34.82896 -119.03009
   34.86390 -119.21000
   34.91571 -119.36286
   34.94410 -119.40290
   34.98780 -119.47110
   35.04750 -119.55830
   35.16070 -119.70680
   35.31417 -119.86595
   35.41391 -119.97030
   35.53331 -120.08675
   35.75198 -120.30005
  1  1  3  S. San Andreas;CC+BB+NM+SM+NSB+SSB+BG+CO          
 8.110 0.99617E-05 0.5000
 8.110 0.96273E-05 0.2000
 8.110 0.10165E-04 0.3000
   85.5    13.00   0.1      449.0
  34
   33.35009 -115.71192
   33.78825 -116.24629
   33.84852 -116.38300
   33.84812 -116.42653
   33.88466 -116.51689
   33.90702 -116.58485
   33.91757 -116.62387
   33.94416 -116.68581
   33.93741 -116.77859
   33.95316 -116.80139
   33.95911 -116.81979
   34.01135 -116.87354
   34.03384 -116.90235
   34.07377 -117.01390
   34.09280 -117.06767
   34.15003 -117.22202
   34.17314 -117.27416
   34.23284 -117.38869
   34.27090 -117.45100
   34.31630 -117.54900
   34.40293 -117.75358
   34.54785 -118.10394
   34.69849 -118.50895
   34.77325 -118.76731
   34.80722 -118.88764
   34.80760 -118.89012
   34.82896 -119.03009
   34.86390 -119.21000
   34.91571 -119.36286
   34.94410 -119.40290
   34.98780 -119.47110
   35.04750 -119.55830
   35.16070 -119.70680
   35.31420 -119.86590
  1  1  3  S. San Andreas;PK+CH+CC+BB+NM+SM+NSB+SSB+BG       
 8.122 0.43897E-04 0.5000
 8.122 0.38034E-04 0.2000
 8.122 0.45953E-04 0.3000
   85.6    13.00   0.1      479.0
  37
   33.78825 -116.24629
   33.84852 -116.38300
   33.84812 -116.42653
   33.88466 -116.51689
   33.90702 -116.58485
   33.91757 -116.62387
   33.94416 -116.68581
   33.93741 -116.77859
   33.95316 -116.80139
   33.95911 -116.81979
   34.01135 -116.87354
   34.03384 -116.90235
   34.07377 -117.01390
   34.09280 -117.06767
   34.15003 -117.22202
   34.17314 -117.27416
   34.23284 -117.38869
   34.27090 -117.45100
   34.31630 -117.54900
   34.40293 -117.75358
   34.54785 -118.10394
   34.69849 -118.50895
   34.77325 -118.76731
   34.80722 -118.88764
   34.80760 -118.89012
   34.82896 -119.03009
   34.86390 -119.21000
   34.91571 -119.36286
   34.94410 -119.40290
   34.98780 -119.47110
   35.04750 -119.55830
   35.16070 -119.70680
   35.31417 -119.86595
   35.41391 -119.97030
   35.53331 -120.08675
   35.75198 -120.30005
   36.00265 -120.56089
  1  1  3  S. San Andreas;CH+CC+BB+NM+SM+NSB+SSB+BG+CO       
 8.178 0.10815E-05 0.5000
 8.178 0.10815E-05 0.2000
 8.178 0.10815E-05 0.3000
   86.0    13.00   0.1      512.0
  37
   33.35009 -115.71192
   33.78825 -116.24629
   33.84852 -116.38300
   33.84812 -116.42653
   33.88466 -116.51689
   33.90702 -116.58485
   33.91757 -116.62387
   33.94416 -116.68581
   33.93741 -116.77859
   33.95316 -116.80139
   33.95911 -116.81979
   34.01135 -116.87354
   34.03384 -116.90235
   34.07377 -117.01390
   34.09280 -117.06767
   34.15003 -117.22202
   34.17314 -117.27416
   34.23284 -117.38869
   34.27090 -117.45100
   34.31630 -117.54900
   34.40293 -117.75358
   34.54785 -118.10394
   34.69849 -118.50895
   34.77325 -118.76731
   34.80722 -118.88764
   34.80760 -118.89012
   34.82896 -119.03009
   34.86390 -119.21000
   34.91571 -119.36286
   34.94410 -119.40290
   34.98780 -119.47110
   35.04750 -119.55830
   35.16070 -119.70680
   35.31417 -119.86595
   35.41391 -119.97030
   35.53331 -120.08675
   35.75198 -120.30005
  1  1  3  S. San Andreas;PK+CH+CC+BB+NM+SM+NSB+SSB+BG+CO    
 8.184 0.71584E-04 0.5000
 8.184 0.35373E-04 0.2000
 8.184 0.94872E-04 0.3000
   86.1    13.00   0.1      548.0
  38
   33.35009 -115.71192
   33.78825 -116.24629
   33.84852 -116.38300
   33.84812 -116.42653
   33.88466 -116.51689
   33.90702 -116.58485
   33.91757 -116.62387
   33.94416 -116.68581
   33.93741 -116.77859
   33.95316 -116.80139
   33.95911 -116.81979
   34.01135 -116.87354
   34.03384 -116.90235
   34.07377 -117.01390
   34.09280 -117.06767
   34.15003 -117.22202
   34.17314 -117.27416
   34.23284 -117.38869
   34.27090 -117.45100
   34.31630 -117.54900
   34.40293 -117.75358
   34.54785 -118.10394
   34.69849 -118.50895
   34.77325 -118.76731
   34.80722 -118.88764
   34.80760 -118.89012
   34.82896 -119.03009
   34.86390 -119.21000
   34.91571 -119.36286
   34.94410 -119.40290
   34.98780 -119.47110
   35.04750 -119.55830
   35.16070 -119.70680
   35.31417 -119.86595
   35.41391 -119.97030
   35.53331 -120.08675
   35.75198 -120.30005
   36.00265 -120.56089
  1  1  3  Hayward-Rodgers Creek;RC                          
 6.891 0.56531E-02 0.5000
 6.891 0.56531E-02 0.2000
 6.891 0.56531E-02 0.3000
   90.0    12.00   0.1       62.0
   3
   38.08750 -122.43420
   38.33150 -122.61360
   38.57520 -122.78830
  1  1  3  Hayward-Rodgers Creek;HN                          
 6.379 0.46442E-02 0.5000
 6.379 0.46442E-02 0.2000
 6.379 0.46442E-02 0.3000
   90.0     7.00   2.4       35.0
   2
   37.82730 -122.21280
   38.08750 -122.43420
  1  1  3  Hayward-Rodgers Creek;HS                          
 6.557 0.48893E-02 0.5000
 6.557 0.48893E-02 0.2000
 6.557 0.48893E-02 0.3000
   90.0     7.00   2.4       52.0
   4
   37.45400 -121.84900
   37.67600 -122.08240
   37.72990 -122.12840
   37.82730 -122.21280
  1  1  3  Hayward-Rodgers Creek;RC+HN                       
 7.061 0.62177E-03 0.5000
 7.061 0.62177E-03 0.2000
 7.061 0.62177E-03 0.3000
   90.0    10.00   0.7       97.0
   4
   38.57520 -122.78830
   38.33150 -122.61360
   38.08750 -122.43420
   37.82730 -122.21280
  1  1  3  Hayward-Rodgers Creek;HN+HS                       
 6.801 0.42960E-02 0.5000
 6.801 0.42960E-02 0.2000
 6.801 0.42960E-02 0.3000
   90.0     7.00   2.4       87.0
   5
   38.08750 -122.43420
   37.82730 -122.21280
   37.72990 -122.12840
   37.67600 -122.08240
   37.45400 -121.84900
  1  1  3  Hayward-Rodgers Creek;RC+HN+HS                    
 7.249 0.38829E-03 0.5000
 7.249 0.38829E-03 0.2000
 7.249 0.38829E-03 0.3000
   90.0     9.00   1.2      150.0
   7
   38.57520 -122.78830
   38.33150 -122.61360
   38.08750 -122.43420
   37.82730 -122.21280
   37.72990 -122.12840
   37.67600 -122.08240
   37.45400 -121.84900
  1  1  3  Calaveras;CN                                      
 6.652 0.24673E-02 0.5000
 6.652 0.24673E-02 0.2000
 6.652 0.24673E-02 0.3000
   90.0    10.00   1.3       45.0
   8
   37.81730 -122.00940
   37.71490 -121.93790
   37.69390 -121.93270
   37.56750 -121.86200
   37.53850 -121.85110
   37.51010 -121.83490
   37.48880 -121.82350
   37.44500 -121.80710
  1  1  3  Calaveras;CC                                      
 6.172 0.15839E-01 0.5000
 6.172 0.15839E-01 0.2000
 6.172 0.15839E-01 0.3000
   90.0     3.00   4.2       59.0
   7
   37.44500 -121.80710
   37.39960 -121.76180
   37.34300 -121.71490
   37.24810 -121.64830
   37.15230 -121.58010
   37.09580 -121.54240
   36.98980 -121.46780
  1  1  3  Calaveras;CS                                      
 5.609 0.45793E-01 0.5000
 5.609 0.45793E-01 0.2000
 5.609 0.45793E-01 0.3000
   90.0     2.00   4.4       19.0
   2
   36.82570 -121.39560
   36.98980 -121.46780
  1  1  3  Calaveras;CN+CC                                   
 6.798 0.17115E-03 0.5000
 6.798 0.17115E-03 0.2000
 6.798 0.17115E-03 0.3000
   90.0     6.00   2.0      104.0
  14
   37.81730 -122.00940
   37.71490 -121.93790
   37.69390 -121.93270
   37.56750 -121.86200
   37.53850 -121.85110
   37.51010 -121.83490
   37.48880 -121.82350
   37.44500 -121.80710
   37.39960 -121.76180
   37.34300 -121.71490
   37.24810 -121.64830
   37.15230 -121.58010
   37.09580 -121.54240
   36.98980 -121.46780
  1  1  3  Calaveras;CC+CS                                   
 6.277 0.68834E-02 0.5000
 6.277 0.68834E-02 0.2000
 6.277 0.68834E-02 0.3000
   90.0     3.00   4.2       78.0
   8
   37.44500 -121.80710
   37.39960 -121.76180
   37.34300 -121.71490
   37.24810 -121.64830
   37.15230 -121.58010
   37.09580 -121.54240
   36.98980 -121.46780
   36.82570 -121.39560
  1  1  3  Calaveras;CN+CC+CS                                
 6.837 0.30465E-02 0.5000
 6.837 0.30465E-02 0.2000
 6.837 0.30465E-02 0.3000
   90.0     5.00   2.2      123.0
  15
   37.81730 -122.00940
   37.71490 -121.93790
   37.69390 -121.93270
   37.56750 -121.86200
   37.53850 -121.85110
   37.51010 -121.83490
   37.48880 -121.82350
   37.44500 -121.80710
   37.39960 -121.76180
   37.34300 -121.71490
   37.24810 -121.64830
   37.15230 -121.58010
   37.09580 -121.54240
   36.98980 -121.46780
   36.82570 -121.39560
